
 p_cosmn; fsq_total:  5.1526E-25
                       MPOL--->             0             1             2             0             1             2             0             1             2
RADIUS        RMS      NTOR--->            -1            -1            -1             0             0             0             1             1             1
 0.010   3.87490E-03                 0.00000E+00   1.11918E-06  -3.55745E-06   1.16246E-02   2.17711E-05  -5.28717E-05   3.59053E-07  -2.14071E-06   7.77390E-06
 0.020   3.87278E-03                 0.00000E+00  -8.16884E-07   6.90204E-07   1.16179E-02   2.16286E-05  -9.73917E-05  -2.88409E-07  -2.58084E-06   1.25199E-05
 0.030   3.87286E-03                 0.00000E+00   1.55754E-06   8.61476E-07   1.16177E-02   2.16128E-05  -1.40543E-04   4.83443E-07  -3.37046E-06   1.75466E-05
 0.040   3.87332E-03                 0.00000E+00  -4.82546E-07   8.04718E-08   1.16185E-02   2.19982E-05  -1.85134E-04  -6.50600E-07  -2.86225E-06   2.30516E-05
 0.051   3.87329E-03                 0.00000E+00   1.22580E-06   8.31606E-07   1.16176E-02   2.16998E-05  -2.29164E-04   7.40402E-07  -3.26005E-06   2.83654E-05
 0.061   3.87371E-03                 0.00000E+00  -1.60519E-07   9.32865E-07   1.16178E-02   2.18942E-05  -2.74910E-04  -7.28645E-07  -3.03724E-06   3.40122E-05
 0.071   3.87406E-03                 0.00000E+00   8.61023E-07   1.07145E-06   1.16177E-02   2.19305E-05  -3.19053E-04   5.49817E-07  -3.11642E-06   3.94917E-05
 0.081   3.87445E-03                 0.00000E+00   4.42348E-07   1.13797E-06   1.16175E-02   2.16690E-05  -3.66408E-04  -1.61256E-07  -3.19991E-06   4.52568E-05
 0.091   3.87504E-03                 0.00000E+00   3.52329E-08   2.27484E-06   1.16177E-02   2.20926E-05  -4.10598E-04  -4.21475E-07  -2.98130E-06   5.08684E-05
 0.101   3.87557E-03                 0.00000E+00   1.26181E-06   1.07354E-06   1.16175E-02   2.16553E-05  -4.58537E-04   1.04330E-06  -3.32830E-06   5.67794E-05
 0.111   3.87622E-03                 0.00000E+00  -3.78600E-07   3.31149E-06   1.16175E-02   2.17204E-05  -5.04411E-04  -1.41158E-06  -3.00529E-06   6.25805E-05
 0.121   3.87702E-03                 0.00000E+00   8.50117E-07   2.76756E-06   1.16178E-02   2.17719E-05  -5.50214E-04   1.18505E-06  -3.30661E-06   6.86771E-05
 0.131   3.87771E-03                 0.00000E+00   6.32270E-07   2.46802E-06   1.16174E-02   2.15502E-05  -5.99611E-04  -2.33656E-07  -3.19017E-06   7.46189E-05
 0.141   3.87857E-03                 0.00000E+00  -2.67316E-07   5.31678E-06   1.16175E-02   2.19658E-05  -6.44589E-04  -1.09295E-06  -2.99264E-06   8.07175E-05
 0.152   3.87955E-03                 0.00000E+00   1.26348E-06   3.06483E-06   1.16176E-02   2.22806E-05  -6.94847E-04   1.94987E-06  -3.13530E-06   8.63164E-05
 0.162   3.88049E-03                 0.00000E+00   2.26619E-07   4.61632E-06   1.16172E-02   2.23876E-05  -7.45192E-04  -1.50640E-06  -2.92833E-06   9.23207E-05
 0.172   3.88162E-03                 0.00000E+00   2.92113E-07   6.31551E-06   1.16175E-02   2.20794E-05  -7.91544E-04  -2.03082E-07  -2.95307E-06   9.80291E-05
 0.182   3.88280E-03                 0.00000E+00   1.20895E-06   3.61757E-06   1.16173E-02   2.17929E-05  -8.43589E-04   1.88849E-06  -3.33073E-06   1.04143E-04
 0.192   3.88393E-03                 0.00000E+00  -2.67568E-07   6.82272E-06   1.16169E-02   2.21004E-05  -8.93314E-04  -1.88380E-06  -2.93776E-06   1.10221E-04
 0.202   3.88527E-03                 0.00000E+00   2.60294E-07   7.85556E-06   1.16172E-02   2.24296E-05  -9.40624E-04  -1.16981E-07  -3.03799E-06   1.16257E-04
 0.212   3.88667E-03                 0.00000E+00   1.53391E-06   4.93754E-06   1.16169E-02   2.22848E-05  -9.94406E-04   2.16172E-06  -3.11939E-06   1.22013E-04
 0.222   3.88805E-03                 0.00000E+00   5.20996E-08   8.31395E-06   1.16164E-02   2.21964E-05  -1.04606E-03  -1.76795E-06  -3.04102E-06   1.28320E-04
 0.232   3.88962E-03                 0.00000E+00  -1.03052E-07   1.02582E-05   1.16167E-02   2.22282E-05  -1.09392E-03  -8.81496E-07  -2.93574E-06   1.34202E-04
 0.242   3.89127E-03                 0.00000E+00   1.37598E-06   6.57886E-06   1.16164E-02   2.22501E-05  -1.14747E-03   2.41739E-06  -3.27583E-06   1.40247E-04
 0.253   3.89285E-03                 0.00000E+00   4.36094E-07   8.74787E-06   1.16156E-02   2.23414E-05  -1.20169E-03  -5.40805E-07  -2.98572E-06   1.46345E-04
 0.263   3.89456E-03                 0.00000E+00  -5.50867E-07   1.27169E-05   1.16155E-02   2.24498E-05  -1.25075E-03  -2.21551E-06  -3.03053E-06   1.52589E-04
 0.273   3.89641E-03                 0.00000E+00   9.94053E-07   9.72153E-06   1.16153E-02   2.23422E-05  -1.30258E-03   1.56339E-06  -3.08019E-06   1.58374E-04
 0.283   3.89825E-03                 0.00000E+00   1.39435E-06   8.51699E-06   1.16144E-02   2.22089E-05  -1.35873E-03   1.62698E-06  -3.25644E-06   1.64565E-04
 0.293   3.90011E-03                 0.00000E+00  -3.09779E-07   1.33570E-05   1.16136E-02   2.22231E-05  -1.41124E-03  -2.04868E-06  -2.90414E-06   1.70723E-04
 0.303   3.90207E-03                 0.00000E+00  -3.01912E-07   1.38888E-05   1.16133E-02   2.22491E-05  -1.46121E-03  -1.19285E-06  -3.13143E-06   1.76807E-04
 0.313   3.90404E-03                 0.00000E+00   1.26618E-06   9.57743E-06   1.16122E-02   2.21365E-05  -1.51562E-03   2.22036E-06  -3.11414E-06   1.82577E-04
 0.323   3.90598E-03                 0.00000E+00   8.07417E-07   1.04284E-05   1.16104E-02   2.21152E-05  -1.57203E-03   9.55623E-07  -3.21263E-06   1.88745E-04
 0.333   3.90790E-03                 0.00000E+00  -7.37151E-07   1.43054E-05   1.16089E-02   2.21426E-05  -1.62451E-03  -2.22534E-06  -2.88154E-06   1.94857E-04
 0.343   3.90978E-03                 0.00000E+00  -2.10042E-07   1.21871E-05   1.16073E-02   2.19246E-05  -1.67549E-03  -1.07873E-06  -3.16515E-06   2.00836E-04
 0.354   3.91160E-03                 0.00000E+00   1.31888E-06   6.82285E-06   1.16047E-02   2.14403E-05  -1.73033E-03   2.02995E-06  -3.08441E-06   2.06513E-04
 0.364   3.91334E-03                 0.00000E+00   6.21182E-07   6.87892E-06   1.16012E-02   2.11930E-05  -1.78708E-03   1.35115E-06  -3.19338E-06   2.12441E-04
 0.374   3.91498E-03                 0.00000E+00  -1.22508E-06   9.26452E-06   1.15977E-02   2.12463E-05  -1.84078E-03  -1.73406E-06  -2.85335E-06   2.18413E-04
 0.384   3.91637E-03                 0.00000E+00  -1.08912E-06   5.34452E-06   1.15936E-02   2.10842E-05  -1.89212E-03  -1.88661E-06  -3.12679E-06   2.24304E-04
 0.394   3.91744E-03                 0.00000E+00   6.86557E-07  -3.62885E-06   1.15878E-02   2.03487E-05  -1.94569E-03   9.47591E-07  -3.02238E-06   2.29876E-04
 0.404   3.91820E-03                 0.00000E+00   8.40769E-07  -9.58486E-06   1.15804E-02   1.94890E-05  -2.00209E-03   2.12491E-06  -3.17101E-06   2.35466E-04
 0.414   3.91860E-03                 0.00000E+00  -1.04214E-06  -1.24629E-05   1.15718E-02   1.88713E-05  -2.05755E-03  -1.13231E-07  -2.78222E-06   2.41201E-04
 0.424   3.91843E-03                 0.00000E+00  -2.10989E-06  -2.02846E-05   1.15617E-02   1.81088E-05  -2.10985E-03  -2.29810E-06  -2.98860E-06   2.47020E-04
 0.434   3.91750E-03                 0.00000E+00  -1.08044E-06  -3.57497E-05   1.15492E-02   1.65551E-05  -2.16135E-03  -1.37128E-06  -2.87113E-06   2.52596E-04
 0.444   3.91580E-03                 0.00000E+00  -2.60043E-07  -5.27822E-05   1.15337E-02   1.44924E-05  -2.21498E-03   1.25946E-06  -3.11572E-06   2.57815E-04
 0.455   3.91333E-03                 0.00000E+00  -1.86695E-06  -6.66286E-05   1.15152E-02   1.27784E-05  -2.27024E-03   1.91132E-06  -2.70635E-06   2.62977E-04
 0.465   3.90993E-03                 0.00000E+00  -4.45660E-06  -8.18741E-05   1.14938E-02   1.16217E-05  -2.32397E-03  -2.31573E-07  -2.78591E-06   2.68313E-04
 0.475   3.90523E-03                 0.00000E+00  -5.10279E-06  -1.05972E-04   1.14688E-02   9.97113E-06  -2.37461E-03  -2.52580E-06  -2.55788E-06   2.73907E-04
 0.485   3.89893E-03                 0.00000E+00  -3.41120E-06  -1.39909E-04   1.14386E-02   6.79755E-06  -2.42379E-03  -2.13263E-06  -2.89567E-06   2.79238E-04
 0.495   3.89093E-03                 0.00000E+00  -2.16501E-06  -1.78215E-04   1.14026E-02   2.21136E-06  -2.47413E-03   3.29027E-07  -2.58519E-06   2.84269E-04
 0.505   3.88114E-03                 0.00000E+00  -3.49196E-06  -2.18152E-04   1.13604E-02  -2.75542E-06  -2.52589E-03   1.96018E-06  -2.59458E-06   2.88972E-04
 0.515   3.86928E-03                 0.00000E+00  -6.38128E-06  -2.64038E-04   1.13113E-02  -7.77846E-06  -2.57677E-03   6.28672E-07  -2.11720E-06   2.94085E-04
 0.525   3.85485E-03                 0.00000E+00  -8.23980E-06  -3.22472E-04   1.12543E-02  -1.37519E-05  -2.62420E-03  -2.28065E-06  -2.36464E-06   2.99384E-04
 0.535   3.83742E-03                 0.00000E+00  -8.52165E-06  -3.94743E-04   1.11877E-02  -2.18371E-05  -2.66806E-03  -3.82923E-06  -2.19910E-06   3.04835E-04
 0.545   3.81674E-03                 0.00000E+00  -9.54160E-06  -4.76564E-04   1.11103E-02  -3.17970E-05  -2.71025E-03  -2.23329E-06  -2.44770E-06   3.09426E-04
 0.556   3.79269E-03                 0.00000E+00  -1.36080E-05  -5.64403E-04   1.10211E-02  -4.21479E-05  -2.75252E-03   6.33415E-07  -1.91372E-06   3.13623E-04
 0.566   3.76506E-03                 0.00000E+00  -2.02738E-05  -6.60349E-04   1.09195E-02  -5.16433E-05  -2.79397E-03   1.70553E-06  -1.88349E-06   3.17380E-04
 0.576   3.73349E-03                 0.00000E+00  -2.65539E-05  -7.70432E-04   1.08042E-02  -6.09058E-05  -2.83182E-03  -7.84107E-07  -1.47263E-06   3.21958E-04
 0.586   3.69753E-03                 0.00000E+00  -3.01441E-05  -8.99233E-04   1.06735E-02  -7.19287E-05  -2.86362E-03  -4.63888E-06  -1.86354E-06   3.26606E-04
 0.596   3.65693E-03                 0.00000E+00  -3.17518E-05  -1.04642E-03   1.05259E-02  -8.63420E-05  -2.88972E-03  -6.50938E-06  -1.66311E-06   3.31505E-04
 0.606   3.61163E-03                 0.00000E+00  -3.42440E-05  -1.20952E-03   1.03597E-02  -1.03855E-04  -2.91259E-03  -4.40241E-06  -1.81019E-06   3.35107E-04
 0.616   3.56174E-03                 0.00000E+00  -3.98583E-05  -1.38808E-03   1.01737E-02  -1.22930E-04  -2.93439E-03  -7.63958E-07  -1.16568E-06   3.38502E-04
 0.626   3.50724E-03                 0.00000E+00  -4.84473E-05  -1.58509E-03   9.96637E-03  -1.42490E-04  -2.95403E-03   5.97957E-07  -1.21123E-06   3.41279E-04
 0.636   3.44806E-03                 0.00000E+00  -5.87202E-05  -1.80373E-03   9.73613E-03  -1.63157E-04  -2.96767E-03  -2.81364E-06  -1.05432E-06   3.45261E-04
 0.646   3.38391E-03                 0.00000E+00  -7.09347E-05  -2.04332E-03   9.48129E-03  -1.85970E-04  -2.97093E-03  -8.32312E-06  -1.76903E-06   3.48658E-04
 0.657   3.31470E-03                 0.00000E+00  -8.76782E-05  -2.29888E-03   9.20049E-03  -2.10052E-04  -2.96234E-03  -1.15046E-05  -1.90978E-06   3.51700E-04
 0.667   3.24036E-03                 0.00000E+00  -1.11783E-04  -2.56437E-03   8.89235E-03  -2.31261E-04  -2.94274E-03  -9.29525E-06  -2.24337E-06   3.51567E-04
 0.677   3.16113E-03                 0.00000E+00  -1.43056E-04  -2.83541E-03   8.55613E-03  -2.43953E-04  -2.91291E-03  -4.89328E-06  -1.94537E-06   3.50077E-04
 0.687   3.07681E-03                 0.00000E+00  -1.77915E-04  -3.10759E-03   8.19144E-03  -2.44243E-04  -2.86922E-03  -3.78301E-06  -2.23936E-06   3.46389E-04
 0.697   2.98687E-03                 0.00000E+00  -2.11263E-04  -3.37357E-03   7.79926E-03  -2.31889E-04  -2.80471E-03  -9.54339E-06  -2.63370E-06   3.43516E-04
 0.707   2.89024E-03                 0.00000E+00  -2.39413E-04  -3.62201E-03   7.38153E-03  -2.08750E-04  -2.71284E-03  -1.77054E-05  -3.21564E-06   3.38856E-04
 0.717   2.78660E-03                 0.00000E+00  -2.59558E-04  -3.84162E-03   6.94182E-03  -1.75426E-04  -2.59424E-03  -2.06532E-05  -3.10865E-06   3.33020E-04
 0.727   2.67660E-03                 0.00000E+00  -2.67861E-04  -4.02452E-03   6.48479E-03  -1.30770E-04  -2.45662E-03  -1.44633E-05  -2.03379E-06   3.22853E-04
 0.737   2.56148E-03                 0.00000E+00  -2.59217E-04  -4.16366E-03   6.01747E-03  -7.54633E-05  -2.30961E-03  -5.78242E-06  -9.48763E-07   3.11781E-04
 0.747   2.44076E-03                 0.00000E+00  -2.32597E-04  -4.24570E-03   5.54931E-03  -1.63413E-05  -2.15646E-03  -3.96427E-06   1.82742E-07   2.99977E-04
 0.758   2.31240E-03                 0.00000E+00  -1.94567E-04  -4.25399E-03   5.09156E-03   3.69766E-05  -1.99531E-03  -9.23269E-06   2.69993E-07   2.89466E-04
 0.768   2.17579E-03                 0.00000E+00  -1.55496E-04  -4.18302E-03   4.65410E-03   8.08893E-05  -1.82799E-03  -9.65478E-06   1.68858E-06   2.75602E-04
 0.778   2.03416E-03                 0.00000E+00  -1.17199E-04  -4.04469E-03   4.24382E-03   1.21838E-04  -1.66603E-03   1.10927E-06   2.60509E-06   2.57582E-04
 0.788   1.88943E-03                 0.00000E+00  -7.29140E-05  -3.84415E-03   3.86706E-03   1.63075E-04  -1.51965E-03   1.01057E-05   4.49159E-06   2.37497E-04
 0.798   1.74186E-03                 0.00000E+00  -2.21661E-05  -3.57743E-03   3.53435E-03   1.92951E-04  -1.38958E-03   6.48475E-06   4.29679E-06   2.19979E-04
 0.808   1.60064E-03                 0.00000E+00   2.23226E-05  -3.27304E-03   3.25846E-03   1.98132E-04  -1.28332E-03   4.27097E-06   5.59150E-06   2.03448E-04
 0.818   1.47876E-03                 0.00000E+00   5.61269E-05  -2.97706E-03   3.04320E-03   1.84441E-04  -1.21876E-03   1.23213E-05   4.66622E-06   1.84500E-04
 0.828   1.37778E-03                 0.00000E+00   7.79785E-05  -2.69291E-03   2.88927E-03   1.58754E-04  -1.19380E-03   9.78021E-06   4.24723E-06   1.68256E-04
 0.838   1.29810E-03                 0.00000E+00   6.69551E-05  -2.43752E-03   2.79293E-03   1.36023E-04  -1.17369E-03   3.72660E-06   2.24827E-06   1.51819E-04
 0.848   1.21367E-03                 0.00000E+00   4.47483E-05  -2.15470E-03   2.71300E-03   1.68750E-04  -1.09821E-03   1.05993E-05   3.50063E-06   1.31197E-04
 0.859   1.05473E-03                 0.00000E+00   7.09975E-05  -1.48572E-03   2.61212E-03   2.56376E-04  -9.48501E-04   2.96452E-05   1.16605E-05   1.00797E-04
 0.869   8.93524E-04                 0.00000E+00   8.61322E-05  -1.61439E-04   2.51195E-03   2.69953E-04  -8.74294E-04   5.21101E-05   2.09143E-05   4.12633E-05
 0.879   9.18666E-04                 0.00000E+00  -7.44024E-06   1.16946E-03   2.31817E-03   1.17713E-04  -9.15765E-04   2.25395E-05   1.09020E-05  -2.87210E-05
 0.889   8.17670E-04                 0.00000E+00  -7.49772E-05   1.43119E-03   1.80662E-03  -4.54449E-05  -8.33523E-04  -1.68282E-05  -5.00386E-06  -4.84933E-05
 0.899   4.95781E-04                 0.00000E+00  -5.22286E-05   8.77732E-04   1.06573E-03  -7.28830E-05  -5.44645E-04  -1.46599E-05  -7.17740E-06  -3.22284E-05
 0.909   2.11553E-04                 0.00000E+00  -2.70087E-05   3.64635E-04   4.55146E-04  -3.82344E-05  -2.45352E-04  -8.99597E-06  -4.44571E-06  -1.36585E-05
 0.919   6.19781E-05                 0.00000E+00  -8.19783E-06   9.56650E-05   1.38927E-04  -1.26270E-05  -7.66066E-05  -2.65448E-06  -1.42370E-06  -3.83237E-06
 0.929   1.41118E-05                 0.00000E+00  -1.72121E-06   1.68758E-05   3.46018E-05  -1.49700E-06  -1.74416E-05  -4.13886E-07  -2.47037E-07  -7.48611E-07
 0.939   3.56864E-06                 0.00000E+00  -4.79281E-07   3.21335E-06   9.38414E-06   3.51717E-07  -3.98007E-06  -1.01207E-07  -4.79370E-08  -1.48813E-07
 0.949   9.91559E-07                 0.00000E+00  -1.15148E-07   7.54971E-07   2.64627E-06   9.22202E-08  -1.11886E-06  -2.37033E-08  -1.05003E-08  -4.08260E-08
 0.960   2.34705E-07                 0.00000E+00  -1.54864E-08   1.74568E-07   6.13825E-07  -1.87243E-08  -2.96284E-07  -3.37935E-09  -1.62523E-09  -1.15293E-08
 0.970   3.59816E-08                 0.00000E+00   7.22483E-10   2.55230E-08   9.05996E-08  -1.13691E-08  -5.15570E-08   1.42971E-10   6.14545E-11  -2.11458E-09
 0.980   3.43507E-09                 0.00000E+00   2.07961E-10   2.19743E-09   8.62509E-09  -1.26077E-09  -5.02948E-09   3.66294E-11   2.75341E-11  -2.14521E-10
 0.990   1.36744E-10                 0.00000E+00   3.49061E-11   1.23459E-10   2.80042E-10  -1.21065E-10  -2.42097E-10   5.28820E-12   4.78746E-12  -9.29750E-12
 1.000   1.26040E-12                 0.00000E+00   7.55013E-17   1.18939E-14   3.49479E-12  -1.47964E-14  -1.44115E-12  -1.42799E-28   9.25902E-16  -8.19286E-14

 B^s_sinmn; fsq_total:  5.1526E-25
                       MPOL--->             0             1             2             0             1             2             0             1             2
RADIUS        RMS      NTOR--->            -1            -1            -1             0             0             0             1             1             1
 0.010   8.50553E-04                 0.00000E+00   6.66433E-04  -8.60905E-04   0.00000E+00  -1.32703E-03  -1.67620E-04  -2.14003E-06   1.43315E-03   1.21764E-03
 0.020   7.18279E-04                 0.00000E+00   1.11172E-03  -1.26737E-03   0.00000E+00  -7.44412E-04  -7.53605E-05  -1.23988E-06   1.10881E-03   1.08969E-04
 0.030   8.50602E-04                 0.00000E+00   1.29138E-03  -1.90211E-03   0.00000E+00  -4.98346E-04  -5.07004E-05   3.58468E-07   9.87464E-04   3.19058E-06
 0.040   1.02613E-03                 0.00000E+00   1.37007E-03  -2.54372E-03   0.00000E+00  -4.51567E-04  -5.18007E-05   1.63119E-06   9.57826E-04   6.97944E-05
 0.051   1.22057E-03                 0.00000E+00   1.42339E-03  -3.21023E-03   0.00000E+00  -4.28548E-04  -5.80929E-05   2.91548E-06   9.39696E-04   8.00968E-05
 0.061   1.42093E-03                 0.00000E+00   1.47008E-03  -3.86761E-03   0.00000E+00  -4.16884E-04  -6.57710E-05   4.26037E-06   9.29182E-04   1.01950E-04
 0.071   1.62565E-03                 0.00000E+00   1.51761E-03  -4.52159E-03   0.00000E+00  -4.14038E-04  -7.52795E-05   5.75568E-06   9.19912E-04   1.15163E-04
 0.081   1.83570E-03                 0.00000E+00   1.56233E-03  -5.18277E-03   0.00000E+00  -4.11899E-04  -8.22187E-05   7.29659E-06   9.12528E-04   1.30493E-04
 0.091   2.05134E-03                 0.00000E+00   1.61522E-03  -5.85195E-03   0.00000E+00  -4.11289E-04  -9.25149E-05   9.11069E-06   9.05206E-04   1.42988E-04
 0.101   2.26706E-03                 0.00000E+00   1.66866E-03  -6.51606E-03   0.00000E+00  -4.13530E-04  -9.93239E-05   1.10293E-05   8.98522E-04   1.55800E-04
 0.111   2.48629E-03                 0.00000E+00   1.72656E-03  -7.18662E-03   0.00000E+00  -4.14512E-04  -1.07224E-04   1.31583E-05   8.91516E-04   1.66888E-04
 0.121   2.71023E-03                 0.00000E+00   1.79126E-03  -7.86755E-03   0.00000E+00  -4.16413E-04  -1.16298E-04   1.55679E-05   8.84648E-04   1.77800E-04
 0.131   2.93134E-03                 0.00000E+00   1.85870E-03  -8.53720E-03   0.00000E+00  -4.19967E-04  -1.20833E-04   1.81755E-05   8.77527E-04   1.87420E-04
 0.141   3.15723E-03                 0.00000E+00   1.93150E-03  -9.21905E-03   0.00000E+00  -4.22535E-04  -1.30201E-04   2.10505E-05   8.69990E-04   1.96303E-04
 0.152   3.38476E-03                 0.00000E+00   2.01021E-03  -9.90364E-03   0.00000E+00  -4.25171E-04  -1.36264E-04   2.42339E-05   8.62939E-04   2.04041E-04
 0.162   3.61132E-03                 0.00000E+00   2.09368E-03  -1.05835E-02   0.00000E+00  -4.28087E-04  -1.41509E-04   2.77128E-05   8.55998E-04   2.10844E-04
 0.172   3.84248E-03                 0.00000E+00   2.18255E-03  -1.12757E-02   0.00000E+00  -4.30010E-04  -1.50976E-04   3.15051E-05   8.49289E-04   2.16455E-04
 0.182   4.07272E-03                 0.00000E+00   2.27585E-03  -1.19638E-02   0.00000E+00  -4.32014E-04  -1.55516E-04   3.56136E-05   8.42894E-04   2.21278E-04
 0.192   4.30241E-03                 0.00000E+00   2.37431E-03  -1.26489E-02   0.00000E+00  -4.33921E-04  -1.61154E-04   4.00874E-05   8.36052E-04   2.24939E-04
 0.202   4.53674E-03                 0.00000E+00   2.47947E-03  -1.33466E-02   0.00000E+00  -4.35277E-04  -1.70307E-04   4.49820E-05   8.29080E-04   2.27506E-04
