
 p_cosmn; fsq_total:  2.4013E-25
                       MPOL--->             0             1             2             0             1             2             0             1             2
RADIUS        RMS      NTOR--->            -1            -1            -1             0             0             0             1             1             1
 0.010   3.87028E-03                 0.00000E+00   7.48219E-07   3.24977E-07   1.16107E-02   2.16681E-05  -5.37345E-05  -6.05380E-08  -2.17142E-06   7.72817E-06
 0.020   3.87083E-03                 0.00000E+00   6.94097E-07   4.66997E-07   1.16121E-02   2.17598E-05  -9.69550E-05   4.84925E-08  -2.98380E-06   1.24048E-05
 0.030   3.87107E-03                 0.00000E+00   3.47196E-07   4.06729E-07   1.16123E-02   2.17989E-05  -1.40720E-04  -3.52915E-08  -3.04283E-06   1.76197E-05
 0.040   3.87130E-03                 0.00000E+00   6.29964E-07   6.09953E-07   1.16124E-02   2.18042E-05  -1.84810E-04   2.65563E-08  -3.11880E-06   2.29630E-05
 0.051   3.87159E-03                 0.00000E+00   3.43254E-07   7.37692E-07   1.16125E-02   2.18402E-05  -2.29369E-04  -1.79171E-08  -3.09162E-06   2.84199E-05
 0.061   3.87190E-03                 0.00000E+00   5.71580E-07   9.32346E-07   1.16124E-02   2.18277E-05  -2.74298E-04   1.05833E-08  -3.12791E-06   3.39362E-05
 0.071   3.87233E-03                 0.00000E+00   4.34747E-07   1.14687E-06   1.16125E-02   2.18637E-05  -3.19629E-04  -5.34374E-09  -3.10888E-06   3.95298E-05
 0.081   3.87278E-03                 0.00000E+00   5.06752E-07   1.39536E-06   1.16125E-02   2.18395E-05  -3.65331E-04   1.79542E-09  -3.12759E-06   4.51818E-05
 0.091   3.87333E-03                 0.00000E+00   4.84702E-07   1.66151E-06   1.16126E-02   2.18479E-05  -4.11365E-04  -1.85032E-10  -3.12321E-06   5.09021E-05
 0.101   3.87395E-03                 0.00000E+00   4.86177E-07   2.02052E-06   1.16127E-02   2.17991E-05  -4.57692E-04  -3.86639E-10  -3.14916E-06   5.67008E-05
 0.111   3.87464E-03                 0.00000E+00   4.70143E-07   2.40726E-06   1.16128E-02   2.17022E-05  -5.04186E-04  -5.57178E-10  -3.17417E-06   6.26028E-05
 0.121   3.87540E-03                 0.00000E+00   4.48867E-07   2.92597E-06   1.16129E-02   2.16484E-05  -5.50861E-04   2.12629E-09  -3.20820E-06   6.86052E-05
 0.131   3.87622E-03                 0.00000E+00   4.41588E-07   3.45422E-06   1.16130E-02   2.16805E-05  -5.97897E-04  -3.37925E-09  -3.18083E-06   7.46420E-05
 0.141   3.87708E-03                 0.00000E+00   4.65822E-07   3.92376E-06   1.16130E-02   2.19393E-05  -6.45654E-04   5.11220E-09  -3.10581E-06   8.05972E-05
 0.152   3.87803E-03                 0.00000E+00   5.47531E-07   4.31648E-06   1.16130E-02   2.22332E-05  -6.94356E-04  -5.51213E-09  -2.99700E-06   8.64092E-05
 0.162   3.87911E-03                 0.00000E+00   6.29157E-07   4.64357E-06   1.16132E-02   2.23278E-05  -7.43719E-04   3.41437E-09  -2.98190E-06   9.21625E-05
 0.172   3.88028E-03                 0.00000E+00   5.21928E-07   5.09314E-06   1.16133E-02   2.21027E-05  -7.93107E-04  -1.34947E-09  -3.06148E-06   9.80547E-05
 0.182   3.88145E-03                 0.00000E+00   4.54498E-07   5.67240E-06   1.16133E-02   2.19436E-05  -8.42381E-04   1.16059E-09  -3.12548E-06   1.04108E-04
 0.192   3.88268E-03                 0.00000E+00   4.80699E-07   6.29894E-06   1.16133E-02   2.20641E-05  -8.92024E-04  -3.00655E-10  -3.09498E-06   1.10173E-04
 0.202   3.88404E-03                 0.00000E+00   5.69722E-07   6.89858E-06   1.16133E-02   2.22798E-05  -9.42371E-04  -8.98173E-10  -3.03640E-06   1.16158E-04
 0.212   3.88551E-03                 0.00000E+00   5.78780E-07   7.46102E-06   1.16135E-02   2.23292E-05  -9.93255E-04   5.65642E-10  -3.03345E-06   1.22113E-04
 0.222   3.88703E-03                 0.00000E+00   5.17050E-07   8.08686E-06   1.16135E-02   2.22806E-05  -1.04434E-03   7.60134E-10  -3.06398E-06   1.28131E-04
 0.232   3.88860E-03                 0.00000E+00   5.19125E-07   8.78822E-06   1.16134E-02   2.22719E-05  -1.09564E-03  -9.11548E-10  -3.08203E-06   1.34192E-04
 0.242   3.89027E-03                 0.00000E+00   5.34268E-07   9.51722E-06   1.16134E-02   2.23395E-05  -1.14728E-03   7.10960E-10  -3.07367E-06   1.40258E-04
 0.253   3.89204E-03                 0.00000E+00   5.52159E-07   1.02807E-05   1.16134E-02   2.23812E-05  -1.19929E-03  -5.73282E-10  -3.07670E-06   1.46314E-04
 0.263   3.89387E-03                 0.00000E+00   5.21582E-07   1.10607E-05   1.16134E-02   2.23843E-05  -1.25157E-03   2.53772E-10  -3.08347E-06   1.52385E-04
 0.273   3.89578E-03                 0.00000E+00   5.22123E-07   1.19026E-05   1.16132E-02   2.24029E-05  -1.30409E-03   6.10632E-10  -3.09533E-06   1.58460E-04
 0.283   3.89776E-03                 0.00000E+00   5.14089E-07   1.27845E-05   1.16131E-02   2.24183E-05  -1.35686E-03  -1.37202E-09  -3.09361E-06   1.64534E-04
 0.293   3.89982E-03                 0.00000E+00   5.06617E-07   1.36942E-05   1.16129E-02   2.24377E-05  -1.40988E-03   1.70806E-09  -3.10383E-06   1.70594E-04
 0.303   3.90195E-03                 0.00000E+00   4.81339E-07   1.46546E-05   1.16127E-02   2.24483E-05  -1.46309E-03  -1.75244E-09  -3.10099E-06   1.76646E-04
 0.313   3.90413E-03                 0.00000E+00   4.69845E-07   1.56486E-05   1.16123E-02   2.24611E-05  -1.51652E-03   1.51419E-09  -3.11130E-06   1.82675E-04
 0.323   3.90637E-03                 0.00000E+00   4.35746E-07   1.66820E-05   1.16119E-02   2.24788E-05  -1.57013E-03  -1.55572E-09  -3.10548E-06   1.88682E-04
 0.333   3.90866E-03                 0.00000E+00   4.08892E-07   1.77582E-05   1.16113E-02   2.24931E-05  -1.62392E-03   1.31339E-09  -3.11447E-06   1.94658E-04
 0.343   3.91098E-03                 0.00000E+00   3.62701E-07   1.88604E-05   1.16106E-02   2.25137E-05  -1.67786E-03  -1.89862E-09  -3.10719E-06   2.00597E-04
 0.354   3.91332E-03                 0.00000E+00   3.13913E-07   2.00103E-05   1.16096E-02   2.25389E-05  -1.73195E-03   1.74846E-09  -3.11417E-06   2.06495E-04
 0.364   3.91566E-03                 0.00000E+00   2.50872E-07   2.11800E-05   1.16084E-02   2.25643E-05  -1.78618E-03  -3.06544E-09  -3.10490E-06   2.12343E-04
 0.374   3.91798E-03                 0.00000E+00   1.71480E-07   2.23895E-05   1.16069E-02   2.26039E-05  -1.84053E-03   2.54063E-09  -3.11007E-06   2.18139E-04
 0.384   3.92026E-03                 0.00000E+00   8.20089E-08   2.36191E-05   1.16049E-02   2.26408E-05  -1.89498E-03  -4.56658E-09  -3.09755E-06   2.23873E-04
 0.394   3.92245E-03                 0.00000E+00  -3.63153E-08   2.48756E-05   1.16024E-02   2.26956E-05  -1.94952E-03   2.93780E-09  -3.10070E-06   2.29541E-04
 0.404   3.92453E-03                 0.00000E+00  -1.66470E-07   2.61469E-05   1.15993E-02   2.27510E-05  -2.00412E-03  -5.99379E-09  -3.08386E-06   2.35131E-04
 0.414   3.92643E-03                 0.00000E+00  -3.34848E-07   2.74368E-05   1.15954E-02   2.28246E-05  -2.05877E-03   2.57433E-09  -3.08383E-06   2.40641E-04
 0.424   3.92812E-03                 0.00000E+00  -5.22537E-07   2.87250E-05   1.15906E-02   2.29033E-05  -2.11343E-03  -7.56958E-09  -3.06182E-06   2.46056E-04
 0.434   3.92953E-03                 0.00000E+00  -7.57136E-07   3.00257E-05   1.15847E-02   2.30033E-05  -2.16806E-03   1.51531E-09  -3.05677E-06   2.51374E-04
 0.444   3.93056E-03                 0.00000E+00  -1.02160E-06   3.13021E-05   1.15774E-02   2.31094E-05  -2.22262E-03  -9.83299E-09  -3.02848E-06   2.56575E-04
 0.455   3.93114E-03                 0.00000E+00  -1.34392E-06   3.25778E-05   1.15685E-02   2.32457E-05  -2.27706E-03  -2.87324E-10  -3.01647E-06   2.61659E-04
 0.465   3.93116E-03                 0.00000E+00  -1.70734E-06   3.38073E-05   1.15576E-02   2.33858E-05  -2.33132E-03  -1.31742E-08  -2.97991E-06   2.66598E-04
 0.475   3.93049E-03                 0.00000E+00  -2.14418E-06   3.50080E-05   1.15444E-02   2.35689E-05  -2.38531E-03  -3.31163E-09  -2.95920E-06   2.71393E-04
 0.485   3.92898E-03                 0.00000E+00  -2.63185E-06   3.61428E-05   1.15285E-02   2.37543E-05  -2.43896E-03  -1.78267E-08  -2.91143E-06   2.76011E-04
 0.495   3.92647E-03                 0.00000E+00  -3.21510E-06   3.72040E-05   1.15093E-02   2.39954E-05  -2.49213E-03  -8.30939E-09  -2.88044E-06   2.80450E-04
 0.505   3.92278E-03                 0.00000E+00  -3.85509E-06   3.81773E-05   1.14863E-02   2.42417E-05  -2.54473E-03  -2.42099E-08  -2.81769E-06   2.84670E-04
 0.515   3.91766E-03                 0.00000E+00  -4.62058E-06   3.90182E-05   1.14588E-02   2.45535E-05  -2.59655E-03  -1.60183E-08  -2.77484E-06   2.88664E-04
 0.525   3.91088E-03                 0.00000E+00  -5.44335E-06   3.97385E-05   1.14262E-02   2.48797E-05  -2.64746E-03  -3.31860E-08  -2.69286E-06   2.92386E-04
 0.535   3.90213E-03                 0.00000E+00  -6.42808E-06   4.02577E-05   1.13875E-02   2.52781E-05  -2.69721E-03  -2.71273E-08  -2.63639E-06   2.95822E-04
 0.545   3.89112E-03                 0.00000E+00  -7.46584E-06   4.06053E-05   1.13418E-02   2.57055E-05  -2.74557E-03  -4.59742E-08  -2.53091E-06   2.98916E-04
 0.556   3.87745E-03                 0.00000E+00  -8.70339E-06   4.06759E-05   1.12881E-02   2.62092E-05  -2.79221E-03  -4.25571E-08  -2.45868E-06   3.01647E-04
 0.566   3.86075E-03                 0.00000E+00  -9.98798E-06   4.05013E-05   1.12252E-02   2.67607E-05  -2.83681E-03  -6.38063E-08  -2.32618E-06   3.03950E-04
 0.576   3.84052E-03                 0.00000E+00  -1.15027E-05   3.99666E-05   1.11518E-02   2.73902E-05  -2.87895E-03  -6.38339E-08  -2.23553E-06   3.05791E-04
 0.586   3.81630E-03                 0.00000E+00  -1.30609E-05   3.90898E-05   1.10664E-02   2.80883E-05  -2.91818E-03  -8.75612E-08  -2.07414E-06   3.07094E-04
 0.596   3.78751E-03                 0.00000E+00  -1.48605E-05   3.77616E-05   1.09674E-02   2.88634E-05  -2.95394E-03  -9.32781E-08  -1.96193E-06   3.07815E-04
 0.606   3.75357E-03                 0.00000E+00  -1.67058E-05   3.59764E-05   1.08532E-02   2.97275E-05  -2.98564E-03  -1.17552E-07  -1.77251E-06   3.07864E-04
 0.616   3.71382E-03                 0.00000E+00  -1.87735E-05   3.36389E-05   1.07219E-02   3.06620E-05  -3.01256E-03  -1.33838E-07  -1.63549E-06   3.07187E-04
 0.626   3.66758E-03                 0.00000E+00  -2.08941E-05   3.07232E-05   1.05716E-02   3.17037E-05  -3.03394E-03  -1.53471E-07  -1.42274E-06   3.05677E-04
 0.636   3.61411E-03                 0.00000E+00  -2.31774E-05   2.71461E-05   1.04003E-02   3.27977E-05  -3.04888E-03  -1.88524E-07  -1.25838E-06   3.03282E-04
 0.646   3.55267E-03                 0.00000E+00  -2.55224E-05   2.28826E-05   1.02058E-02   3.40136E-05  -3.05642E-03  -1.94414E-07  -1.03180E-06   2.99869E-04
 0.657   3.48249E-03                 0.00000E+00  -2.79210E-05   1.78506E-05   9.98618E-03   3.52421E-05  -3.05550E-03  -2.59397E-07  -8.39391E-07   2.95405E-04
 0.667   3.40279E-03                 0.00000E+00  -3.03867E-05   1.20617E-05   9.73924E-03   3.66028E-05  -3.04495E-03  -2.38926E-07  -6.14121E-07   2.89723E-04
 0.677   3.31287E-03                 0.00000E+00  -3.27388E-05   5.42649E-06   9.46317E-03   3.79013E-05  -3.02360E-03  -3.45974E-07  -3.95934E-07   2.82845E-04
 0.687   3.21202E-03                 0.00000E+00  -3.51597E-05  -1.97402E-06   9.15614E-03   3.93362E-05  -2.99007E-03  -2.85226E-07  -1.93278E-07   2.74552E-04
 0.697   3.09971E-03                 0.00000E+00  -3.72314E-05  -1.02091E-05   8.81689E-03   4.05886E-05  -2.94326E-03  -4.42829E-07   4.49728E-08   2.64975E-04
 0.707   2.97541E-03                 0.00000E+00  -3.93787E-05  -1.91442E-05   8.44428E-03   4.19624E-05  -2.88162E-03  -3.31902E-07   1.97901E-07   2.53828E-04
 0.717   2.83902E-03                 0.00000E+00  -4.08705E-05  -2.87103E-05   8.03820E-03   4.29996E-05  -2.80442E-03  -5.36400E-07   4.47366E-07   2.41416E-04
 0.727   2.69033E-03                 0.00000E+00  -4.24585E-05  -3.88462E-05   7.59865E-03   4.40858E-05  -2.71008E-03  -3.79213E-07   5.20563E-07   2.27384E-04
 0.737   2.52991E-03                 0.00000E+00  -4.30448E-05  -4.90861E-05   7.12739E-03   4.47040E-05  -2.59863E-03  -6.01991E-07   7.69376E-07   2.12259E-04
 0.747   2.35812E-03                 0.00000E+00  -4.37471E-05  -5.97208E-05   6.62612E-03   4.51641E-05  -2.46885E-03  -4.30469E-07   7.38548E-07   1.95666E-04
 0.758   2.17643E-03                 0.00000E+00  -4.31616E-05  -6.95165E-05   6.09917E-03   4.51727E-05  -2.32189E-03  -6.03671E-07   9.68976E-07   1.78324E-04
 0.768   1.98602E-03                 0.00000E+00  -4.26462E-05  -7.94736E-05   5.55045E-03   4.45688E-05  -2.15763E-03  -4.91665E-07   8.32822E-07   1.59990E-04
 0.778   1.78941E-03                 0.00000E+00  -4.08054E-05  -8.73165E-05   4.98724E-03   4.38607E-05  -1.97841E-03  -5.02049E-07   1.01272E-06   1.41376E-04
 0.788   1.58886E-03                 0.00000E+00  -3.88006E-05  -9.48955E-05   4.41608E-03   4.17448E-05  -1.78638E-03  -5.65144E-07   8.16585E-07   1.22666E-04
 0.798   1.38769E-03                 0.00000E+00  -3.59283E-05  -9.92353E-05   3.84666E-03   4.03404E-05  -1.58452E-03  -2.78522E-07   8.88195E-07   1.04139E-04
 0.808   1.18949E-03                 0.00000E+00  -3.23180E-05  -1.02229E-04   3.28838E-03   3.65216E-05  -1.37850E-03  -6.24493E-07   7.37661E-07   8.67981E-05
 0.818   9.97616E-04                 0.00000E+00  -2.90041E-05  -1.02214E-04   2.75120E-03   3.43706E-05  -1.17076E-03   7.20378E-09   6.26201E-07   6.99720E-05
 0.828   8.16992E-04                 0.00000E+00  -2.39586E-05  -9.76808E-05   2.24754E-03   2.96451E-05  -9.70451E-04  -5.32168E-07   6.42982E-07   5.55451E-05
 0.838   6.49054E-04                 0.00000E+00  -2.12866E-05  -9.16996E-05   1.78163E-03   2.61403E-05  -7.78407E-04   2.51096E-07   3.73075E-07   4.20370E-05
 0.848   5.00187E-04                 0.00000E+00  -1.79217E-05  -5.42258E-05   1.37198E-03   2.38427E-05  -6.03850E-04   8.78428E-07   8.59911E-07   2.98791E-05
 0.859   3.71961E-04                 0.00000E+00  -1.36410E-05  -1.45954E-05   1.01934E-03   1.60986E-05  -4.52868E-04  -2.95441E-09   3.92035E-07   1.98826E-05
 0.869   2.62839E-04                 0.00000E+00  -9.64062E-06  -8.62039E-06   7.19686E-04   1.25276E-05  -3.21449E-04  -2.21752E-07  -1.37231E-08   1.25708E-05
 0.879   1.77365E-04                 0.00000E+00  -7.03291E-06  -7.56895E-06   4.85246E-04   8.75744E-06  -2.17750E-04  -1.11711E-07   1.03239E-07   7.89205E-06
 0.889   1.12663E-04                 0.00000E+00  -4.63949E-06  -4.21338E-06   3.08149E-04   5.97330E-06  -1.38514E-04  -8.64854E-08  -8.41285E-09   4.50209E-06
 0.899   6.64533E-05                 0.00000E+00  -2.75484E-06  -3.19575E-06   1.81764E-04   3.94790E-06  -8.16526E-05  -8.38837E-08  -9.86851E-09   2.36068E-06
 0.909   3.61541E-05                 0.00000E+00  -1.67269E-06  -1.80978E-06   9.88619E-05   2.05232E-06  -4.44830E-05  -2.85013E-08   1.66853E-09   1.17948E-06
 0.919   1.75393E-05                 0.00000E+00  -7.30475E-07  -9.14883E-07   4.80389E-05   1.29897E-06  -2.13924E-05  -2.92273E-08  -2.06211E-08   4.48583E-07
 0.929   7.59081E-06                 0.00000E+00  -3.86842E-07  -4.96846E-07   2.07633E-05   4.25521E-07  -9.31957E-06  -8.50664E-09   2.82556E-09   1.90679E-07
 0.939   2.72580E-06                 0.00000E+00  -1.05933E-07  -1.41096E-07   7.49004E-06   2.56213E-07  -3.26668E-06  -4.43028E-09  -7.37158E-09   3.46908E-08
 0.949   8.21339E-07                 0.00000E+00  -4.36641E-08  -6.46062E-08   2.24831E-06   3.79436E-08  -1.00440E-06  -1.45339E-09   8.51818E-10   1.26202E-08
 0.960   1.78920E-07                 0.00000E+00  -5.59165E-09  -7.61634E-09   4.94140E-07   1.98738E-08  -2.08447E-07  -1.59229E-10  -8.11946E-10  -1.12482E-09
 0.970   2.81761E-08                 0.00000E+00  -1.20175E-09  -1.92086E-09   7.74414E-08   1.16350E-09  -3.37839E-08  -5.34019E-11   1.00586E-11  -1.67137E-10
 0.980   2.40401E-09                 0.00000E+00  -9.55824E-11  -1.63178E-10   6.59969E-09  -3.16420E-13  -2.90172E-09  -6.05221E-12   6.06431E-12  -3.88886E-11
 0.990   1.00170E-10                 0.00000E+00  -1.50446E-11  -3.08936E-11   2.46802E-10  -5.53756E-11  -1.58338E-10  -1.54475E-12   4.35943E-12   7.42208E-12
 1.000   4.29785E-13                 0.00000E+00   2.57452E-17   4.05569E-15   1.19169E-12  -5.04544E-15  -4.91417E-13   0.00000E+00   3.15724E-16  -2.79369E-14

 B^s_sinmn; fsq_total:  2.4013E-25
                       MPOL--->             0             1             2             0             1             2             0             1             2
RADIUS        RMS      NTOR--->            -1            -1            -1             0             0             0             1             1             1
 0.010   6.99679E-04                 0.00000E+00   1.76265E-03  -1.58689E-04   0.00000E+00   5.70696E-04  -9.32147E-05   1.26926E-06   9.66407E-04   7.41668E-05
 0.020   7.76655E-04                 0.00000E+00   2.07140E-03  -8.98022E-05   0.00000E+00   4.86164E-04  -6.44125E-05   4.86310E-06   9.41833E-04   4.89634E-05
 0.030   8.21965E-04                 0.00000E+00   2.24614E-03  -6.05396E-05   0.00000E+00   4.30050E-04  -7.47518E-05   9.26080E-06   9.15127E-04   6.12305E-05
 0.040   8.40804E-04                 0.00000E+00   2.31592E-03  -7.13812E-05   0.00000E+00   4.06694E-04  -1.00735E-04   1.35965E-05   9.00890E-04   8.15447E-05
 0.051   8.51244E-04                 0.00000E+00   2.35275E-03  -8.62041E-05   0.00000E+00   3.95210E-04  -1.25911E-04   1.78999E-05   8.92240E-04   1.01039E-04
 0.061   8.57494E-04                 0.00000E+00   2.37411E-03  -1.01654E-04   0.00000E+00   3.86861E-04  -1.51990E-04   2.21895E-05   8.84853E-04   1.21250E-04
 0.071   8.61667E-04                 0.00000E+00   2.38738E-03  -1.18351E-04   0.00000E+00   3.80867E-04  -1.77976E-04   2.64703E-05   8.78179E-04   1.41418E-04
 0.081   8.64522E-04                 0.00000E+00   2.39562E-03  -1.34085E-04   0.00000E+00   3.75784E-04  -2.04121E-04   3.07465E-05   8.71524E-04   1.61929E-04
 0.091   8.66604E-04                 0.00000E+00   2.40063E-03  -1.50626E-04   0.00000E+00   3.71276E-04  -2.30181E-04   3.50163E-05   8.64844E-04   1.82516E-04
 0.101   8.68138E-04                 0.00000E+00   2.40325E-03  -1.66666E-04   0.00000E+00   3.67383E-04  -2.56200E-04   3.92775E-05   8.57956E-04   2.03332E-04
 0.111   8.69347E-04                 0.00000E+00   2.40429E-03  -1.82729E-04   0.00000E+00   3.63590E-04  -2.82085E-04   4.35339E-05   8.50832E-04   2.24274E-04
 0.121   8.70297E-04                 0.00000E+00   2.40398E-03  -1.98906E-04   0.00000E+00   3.60038E-04  -3.07842E-04   4.77780E-05   8.43332E-04   2.45353E-04
 0.131   8.71068E-04                 0.00000E+00   2.40267E-03  -2.14639E-04   0.00000E+00   3.56448E-04  -3.33416E-04   5.20090E-05   8.35443E-04   2.66540E-04
 0.141   8.71722E-04                 0.00000E+00   2.40053E-03  -2.30303E-04   0.00000E+00   3.52876E-04  -3.58770E-04   5.62209E-05   8.27223E-04   2.87788E-04
 0.152   8.72293E-04                 0.00000E+00   2.39755E-03  -2.45442E-04   0.00000E+00   3.49683E-04  -3.83903E-04   6.04081E-05   8.18979E-04   3.09063E-04
 0.162   8.72856E-04                 0.00000E+00   2.39389E-03  -2.60212E-04   0.00000E+00   3.47043E-04  -4.08847E-04   6.45736E-05   8.10938E-04   3.30319E-04
 0.172   8.73421E-04                 0.00000E+00   2.38951E-03  -2.74993E-04   0.00000E+00   3.45073E-04  -4.33687E-04   6.87149E-05   8.03105E-04   3.51500E-04
 0.182   8.73963E-04                 0.00000E+00   2.38453E-03  -2.89544E-04   0.00000E+00   3.43363E-04  -4.58403E-04   7.28168E-05   7.95172E-04   3.72620E-04
 0.192   8.74471E-04                 0.00000E+00   2.37904E-03  -3.03865E-04   0.00000E+00   3.41661E-04  -4.82936E-04   7.68767E-05   7.86944E-04   3.93694E-04
 0.202   8.74940E-04                 0.00000E+00   2.37299E-03  -3.17676E-04   0.00000E+00   3.40188E-04  -5.07257E-04   8.08936E-05   7.78518E-04   4.14760E-04
