
 p_cosmn; fsq_total:  1.2299E-22
                       MPOL--->             0             1             2             0             1             2             0             1             2
RADIUS        RMS      NTOR--->            -1            -1            -1             0             0             0             1             1             1
 0.010   3.87037E-03                 0.00000E+00   7.23480E-07   3.43636E-07   1.16110E-02   2.16710E-05  -5.37385E-05  -4.77204E-08  -2.17233E-06   7.72747E-06
 0.020   3.87087E-03                 0.00000E+00   6.49851E-07   4.70041E-07   1.16122E-02   2.17719E-05  -9.69534E-05   4.07952E-08  -2.97625E-06   1.24068E-05
 0.030   3.87109E-03                 0.00000E+00   3.69942E-07   4.06592E-07   1.16124E-02   2.17895E-05  -1.40724E-04  -3.17402E-08  -3.04862E-06   1.76189E-05
 0.040   3.87131E-03                 0.00000E+00   5.83165E-07   6.09133E-07   1.16124E-02   2.18169E-05  -1.84806E-04   2.63728E-08  -3.11096E-06   2.29634E-05
 0.051   3.87159E-03                 0.00000E+00   3.75994E-07   7.41144E-07   1.16125E-02   2.18300E-05  -2.29375E-04  -2.11435E-08  -3.09828E-06   2.84203E-05
 0.061   3.87191E-03                 0.00000E+00   5.52570E-07   9.26077E-07   1.16124E-02   2.18337E-05  -2.74292E-04   1.58400E-08  -3.12218E-06   3.39354E-05
 0.071   3.87233E-03                 0.00000E+00   4.30571E-07   1.15589E-06   1.16125E-02   2.18645E-05  -3.19635E-04  -1.08088E-08  -3.11328E-06   3.95309E-05
 0.081   3.87279E-03                 0.00000E+00   5.27862E-07   1.39245E-06   1.16125E-02   2.18340E-05  -3.65325E-04   5.66420E-09  -3.12372E-06   4.51808E-05
 0.091   3.87333E-03                 0.00000E+00   4.55897E-07   1.66679E-06   1.16126E-02   2.18558E-05  -4.11368E-04  -1.43275E-09  -3.12754E-06   5.09027E-05
 0.101   3.87395E-03                 0.00000E+00   5.13152E-07   2.02784E-06   1.16127E-02   2.17941E-05  -4.57691E-04  -1.60358E-09  -3.14391E-06   5.67005E-05
 0.111   3.87464E-03                 0.00000E+00   4.52381E-07   2.41597E-06   1.16128E-02   2.17049E-05  -5.04185E-04   2.37083E-09  -3.18065E-06   6.26028E-05
 0.121   3.87540E-03                 0.00000E+00   4.57252E-07   2.93205E-06   1.16129E-02   2.16490E-05  -5.50865E-04  -1.46546E-09  -3.20126E-06   6.86054E-05
 0.131   3.87622E-03                 0.00000E+00   4.38660E-07   3.46452E-06   1.16130E-02   2.16781E-05  -5.97892E-04  -1.49823E-11  -3.18755E-06   7.46419E-05
 0.141   3.87708E-03                 0.00000E+00   4.64492E-07   3.91306E-06   1.16130E-02   2.19383E-05  -6.45662E-04   1.96749E-09  -3.09972E-06   8.05974E-05
 0.152   3.87803E-03                 0.00000E+00   5.46857E-07   4.32211E-06   1.16130E-02   2.22373E-05  -6.94348E-04  -2.28006E-09  -3.00198E-06   8.64090E-05
 0.162   3.87912E-03                 0.00000E+00   6.33759E-07   4.67117E-06   1.16132E-02   2.23328E-05  -7.43728E-04   1.25570E-09  -2.97841E-06   9.21622E-05
 0.172   3.88028E-03                 0.00000E+00   5.15746E-07   5.10536E-06   1.16134E-02   2.20913E-05  -7.93100E-04  -1.44011E-09  -3.06357E-06   9.80553E-05
 0.182   3.88145E-03                 0.00000E+00   4.61291E-07   5.65339E-06   1.16133E-02   2.19480E-05  -8.42391E-04   2.68839E-09  -3.12476E-06   1.04108E-04
 0.192   3.88268E-03                 0.00000E+00   4.72240E-07   6.30635E-06   1.16133E-02   2.20644E-05  -8.92016E-04  -2.32204E-09  -3.09449E-06   1.10174E-04
 0.202   3.88404E-03                 0.00000E+00   5.77342E-07   6.90172E-06   1.16133E-02   2.22824E-05  -9.42381E-04   1.87382E-09  -3.03789E-06   1.16157E-04
 0.212   3.88551E-03                 0.00000E+00   5.72928E-07   7.49149E-06   1.16135E-02   2.23320E-05  -9.93246E-04  -2.37496E-09  -3.03115E-06   1.22113E-04
 0.222   3.88703E-03                 0.00000E+00   5.21900E-07   8.07128E-06   1.16135E-02   2.22661E-05  -1.04435E-03   2.15619E-09  -3.06671E-06   1.28132E-04
 0.232   3.88861E-03                 0.00000E+00   5.15609E-07   8.77949E-06   1.16135E-02   2.22873E-05  -1.09563E-03  -5.63409E-10  -3.07938E-06   1.34190E-04
 0.242   3.89027E-03                 0.00000E+00   5.35160E-07   9.52212E-06   1.16134E-02   2.23281E-05  -1.14728E-03  -5.71351E-10  -3.07613E-06   1.40261E-04
 0.253   3.89204E-03                 0.00000E+00   5.54146E-07   1.02710E-05   1.16134E-02   2.23894E-05  -1.19928E-03   8.46590E-10  -3.07429E-06   1.46310E-04
 0.263   3.89387E-03                 0.00000E+00   5.17248E-07   1.10545E-05   1.16134E-02   2.23750E-05  -1.25157E-03  -1.29925E-09  -3.08591E-06   1.52391E-04
 0.273   3.89578E-03                 0.00000E+00   5.28230E-07   1.18732E-05   1.16133E-02   2.24068E-05  -1.30408E-03   1.40882E-09  -3.09269E-06   1.58454E-04
 0.283   3.89776E-03                 0.00000E+00   5.06813E-07   1.27637E-05   1.16131E-02   2.24147E-05  -1.35687E-03  -1.31926E-09  -3.09671E-06   1.64541E-04
 0.293   3.89982E-03                 0.00000E+00   5.13381E-07   1.36535E-05   1.16129E-02   2.24361E-05  -1.40987E-03   2.54754E-11  -3.09995E-06   1.70588E-04
 0.303   3.90195E-03                 0.00000E+00   4.75537E-07   1.46016E-05   1.16127E-02   2.24435E-05  -1.46310E-03   4.86408E-10  -3.10565E-06   1.76655E-04
 0.313   3.90413E-03                 0.00000E+00   4.72471E-07   1.55724E-05   1.16123E-02   2.24597E-05  -1.51652E-03  -2.20536E-09  -3.10593E-06   1.82669E-04
 0.323   3.90637E-03                 0.00000E+00   4.34118E-07   1.65886E-05   1.16119E-02   2.24712E-05  -1.57014E-03   2.07003E-09  -3.11129E-06   1.88693E-04
 0.333   3.90866E-03                 0.00000E+00   4.05987E-07   1.76165E-05   1.16113E-02   2.24865E-05  -1.62391E-03  -4.48671E-09  -3.10830E-06   1.94651E-04
 0.343   3.91098E-03                 0.00000E+00   3.63457E-07   1.86928E-05   1.16106E-02   2.25075E-05  -1.67786E-03   3.71544E-09  -3.11357E-06   2.00610E-04
 0.354   3.91332E-03                 0.00000E+00   3.07503E-07   1.97647E-05   1.16096E-02   2.25209E-05  -1.73195E-03  -7.72767E-09  -3.10749E-06   2.06490E-04
 0.364   3.91566E-03                 0.00000E+00   2.48300E-07   2.08792E-05   1.16084E-02   2.25596E-05  -1.78618E-03   5.87492E-09  -3.11194E-06   2.12360E-04
 0.374   3.91798E-03                 0.00000E+00   1.65220E-07   2.19765E-05   1.16068E-02   2.25725E-05  -1.84053E-03  -1.21596E-08  -3.10258E-06   2.18138E-04
 0.384   3.92025E-03                 0.00000E+00   6.84078E-08   2.30959E-05   1.16049E-02   2.26303E-05  -1.89497E-03   7.64218E-09  -3.10564E-06   2.23893E-04
 0.394   3.92244E-03                 0.00000E+00  -4.07602E-08   2.41879E-05   1.16024E-02   2.26538E-05  -1.94952E-03  -1.65076E-08  -3.09231E-06   2.29546E-04
 0.404   3.92452E-03                 0.00000E+00  -1.97957E-07   2.52706E-05   1.15993E-02   2.27223E-05  -2.00411E-03   6.47568E-09  -3.09276E-06   2.35160E-04
 0.414   3.92643E-03                 0.00000E+00  -3.41815E-07   2.63058E-05   1.15954E-02   2.27742E-05  -2.05878E-03  -1.85504E-08  -3.07545E-06   2.40656E-04
 0.424   3.92811E-03                 0.00000E+00  -5.76191E-07   2.72972E-05   1.15906E-02   2.28448E-05  -2.11341E-03  -5.67107E-10  -3.07025E-06   2.46099E-04
 0.434   3.92951E-03                 0.00000E+00  -7.79609E-07   2.82033E-05   1.15847E-02   2.29392E-05  -2.16807E-03  -1.68880E-08  -3.05036E-06   2.51403E-04
 0.444   3.93054E-03                 0.00000E+00  -1.10019E-06   2.90219E-05   1.15774E-02   2.30128E-05  -2.22261E-03  -1.50715E-08  -3.03462E-06   2.56642E-04
 0.455   3.93112E-03                 0.00000E+00  -1.40373E-06   2.97066E-05   1.15684E-02   2.31541E-05  -2.27707E-03  -1.25294E-08  -3.01412E-06   2.61708E-04
 0.465   3.93113E-03                 0.00000E+00  -1.81664E-06   3.02325E-05   1.15575E-02   2.32455E-05  -2.33132E-03  -3.62741E-08  -2.98259E-06   2.66702E-04
 0.475   3.93045E-03                 0.00000E+00  -2.26999E-06   3.05743E-05   1.15443E-02   2.34283E-05  -2.38532E-03  -9.41796E-09  -2.96206E-06   2.71477E-04
 0.485   3.92894E-03                 0.00000E+00  -2.78805E-06   3.06443E-05   1.15284E-02   2.35638E-05  -2.43897E-03  -6.12469E-08  -2.91115E-06   2.76168E-04
 0.495   3.92642E-03                 0.00000E+00  -3.43944E-06   3.04749E-05   1.15091E-02   2.37787E-05  -2.49213E-03  -1.38297E-08  -2.88803E-06   2.80590E-04
 0.505   3.92272E-03                 0.00000E+00  -4.09324E-06   2.98811E-05   1.14861E-02   2.39893E-05  -2.54475E-03  -8.61258E-08  -2.81722E-06   2.84900E-04
 0.515   3.91758E-03                 0.00000E+00  -4.97836E-06   2.89644E-05   1.14586E-02   2.42315E-05  -2.59655E-03  -3.28663E-08  -2.78492E-06   2.88891E-04
 0.525   3.91079E-03                 0.00000E+00  -5.82420E-06   2.74490E-05   1.14259E-02   2.45445E-05  -2.64751E-03  -1.08070E-07  -2.69717E-06   2.92718E-04
 0.535   3.90202E-03                 0.00000E+00  -6.95951E-06   2.54655E-05   1.13872E-02   2.48223E-05  -2.69723E-03  -7.24091E-08  -2.64551E-06   2.96181E-04
 0.545   3.89099E-03                 0.00000E+00  -8.07774E-06   2.27081E-05   1.13415E-02   2.52540E-05  -2.74563E-03  -1.27476E-07  -2.54650E-06   2.99389E-04
 0.556   3.87730E-03                 0.00000E+00  -9.46336E-06   1.92493E-05   1.12877E-02   2.55948E-05  -2.79226E-03  -1.35035E-07  -2.46356E-06   3.02199E-04
 0.566   3.86057E-03                 0.00000E+00  -1.09417E-05   1.48472E-05   1.12247E-02   2.61453E-05  -2.83690E-03  -1.49858E-07  -2.35957E-06   3.04623E-04
 0.576   3.84032E-03                 0.00000E+00  -1.25766E-05   9.42366E-06   1.11512E-02   2.65976E-05  -2.87906E-03  -2.18438E-07  -2.23518E-06   3.06609E-04
 0.586   3.81605E-03                 0.00000E+00  -1.44769E-05   2.87064E-06   1.10656E-02   2.72511E-05  -2.91831E-03  -1.86639E-07  -2.12965E-06   3.08053E-04
 0.596   3.78725E-03                 0.00000E+00  -1.63819E-05  -5.07068E-06   1.09666E-02   2.78760E-05  -2.95414E-03  -3.15362E-07  -1.96041E-06   3.08991E-04
 0.606   3.75325E-03                 0.00000E+00  -1.87009E-05  -1.43825E-05   1.08522E-02   2.86144E-05  -2.98586E-03  -2.53004E-07  -1.84975E-06   3.09228E-04
 0.616   3.71348E-03                 0.00000E+00  -2.09258E-05  -2.54462E-05   1.07208E-02   2.94570E-05  -3.01287E-03  -4.17492E-07  -1.64407E-06   3.08833E-04
 0.626   3.66719E-03                 0.00000E+00  -2.35831E-05  -3.81724E-05   1.05702E-02   3.02916E-05  -3.03430E-03  -3.60025E-07  -1.51585E-06   3.07601E-04
 0.636   3.61370E-03                 0.00000E+00  -2.61585E-05  -5.29979E-05   1.03987E-02   3.13384E-05  -3.04936E-03  -5.24133E-07  -1.29404E-06   3.05546E-04
 0.646   3.55223E-03                 0.00000E+00  -2.90396E-05  -6.97581E-05   1.02040E-02   3.23269E-05  -3.05698E-03  -5.04748E-07  -1.13330E-06   3.02536E-04
 0.657   3.48203E-03                 0.00000E+00  -3.18870E-05  -8.89129E-05   9.98406E-03   3.35163E-05  -3.05622E-03  -6.44332E-07  -9.17964E-07   2.98477E-04
 0.667   3.40235E-03                 0.00000E+00  -3.48616E-05  -1.10244E-04   9.73687E-03   3.46797E-05  -3.04580E-03  -6.76007E-07  -7.21246E-07   2.93350E-04
 0.677   3.31246E-03                 0.00000E+00  -3.78093E-05  -1.33985E-04   9.46045E-03   3.60124E-05  -3.02461E-03  -7.74751E-07  -5.27492E-07   2.86944E-04
 0.687   3.21170E-03                 0.00000E+00  -4.05790E-05  -1.60221E-04   9.15314E-03   3.72040E-05  -2.99136E-03  -8.80043E-07  -3.03146E-07   2.79411E-04
 0.697   3.09945E-03                 0.00000E+00  -4.35308E-05  -1.88379E-04   8.81347E-03   3.87616E-05  -2.94456E-03  -8.78340E-07  -1.54705E-07   2.70315E-04
 0.707   2.97540E-03                 0.00000E+00  -4.55087E-05  -2.19139E-04   8.44057E-03   3.97953E-05  -2.88350E-03  -1.12779E-06   1.07976E-07   2.60241E-04
 0.717   2.83912E-03                 0.00000E+00  -4.83182E-05  -2.51301E-04   8.03385E-03   4.13870E-05  -2.80606E-03  -9.37588E-07   1.50425E-07   2.48234E-04
 0.727   2.69083E-03                 0.00000E+00  -4.91091E-05  -2.84928E-04   7.59389E-03   4.24477E-05  -2.71239E-03  -1.34338E-06   4.85868E-07   2.35596E-04
 0.737   2.53063E-03                 0.00000E+00  -5.08959E-05  -3.20114E-04   7.12159E-03   4.33273E-05  -2.60076E-03  -1.03867E-06   3.77889E-07   2.20909E-04
 0.747   2.35916E-03                 0.00000E+00  -5.09769E-05  -3.54272E-04   6.61913E-03   4.48098E-05  -2.47089E-03  -1.35171E-06   7.38350E-07   2.05728E-04
 0.758   2.17780E-03                 0.00000E+00  -5.01257E-05  -3.89718E-04   6.09030E-03   4.43655E-05  -2.32412E-03  -1.27366E-06   5.93148E-07   1.89230E-04
 0.768   1.98729E-03                 0.00000E+00  -5.01536E-05  -4.22887E-04   5.53832E-03   4.57870E-05  -2.15825E-03  -1.11588E-06   7.51926E-07   1.71865E-04
 0.778   1.79050E-03                 0.00000E+00  -4.60849E-05  -4.55015E-04   4.97022E-03   4.45081E-05  -1.97855E-03  -1.52735E-06   8.20734E-07   1.54817E-04
 0.788   1.58856E-03                 0.00000E+00  -4.53734E-05  -4.88593E-04   4.38998E-03   4.41256E-05  -1.78277E-03  -9.87775E-07   5.33532E-07   1.36605E-04
 0.798   1.38379E-03                 0.00000E+00  -4.00650E-05  -5.23342E-04   3.80262E-03   4.28259E-05  -1.57547E-03  -1.77275E-06   8.53319E-07   1.20568E-04
 0.808   1.17766E-03                 0.00000E+00  -3.74351E-05  -5.78111E-04   3.20813E-03   3.89109E-05  -1.35712E-03  -1.93817E-06   6.92620E-08   1.04563E-04
 0.818   9.70194E-04                 0.00000E+00  -3.34123E-05  -6.38923E-04   2.60612E-03   4.00024E-05  -1.12267E-03  -1.83622E-06   5.13190E-07   9.11050E-05
 0.828   7.75011E-04                 0.00000E+00  -2.40357E-05  -6.30982E-04   2.05042E-03   4.14006E-05  -8.91955E-04   1.04223E-06   1.25334E-06   7.45044E-05
 0.838   6.18448E-04                 0.00000E+00  -1.39212E-05  -4.01993E-04   1.66370E-03   4.60606E-05  -7.12653E-04   8.64611E-06   4.03223E-06   5.02211E-05
 0.848   5.41439E-04                 0.00000E+00  -1.04186E-05  -1.07373E-06   1.49322E-03   3.14595E-05  -6.37912E-04   8.33125E-06   4.12232E-06   2.41609E-05
 0.859   4.61828E-04                 0.00000E+00  -1.95361E-05   1.80924E-04   1.25567E-03   1.30455E-05  -5.56214E-04  -8.67959E-07  -4.25070E-07   1.44514E-05
 0.869   3.03985E-04                 0.00000E+00  -1.61790E-05   9.16707E-05   8.26491E-04   1.16817E-05  -3.73639E-04  -3.32585E-06  -1.08800E-06   1.25421E-05
 0.879   1.81155E-04                 0.00000E+00  -8.26131E-06   2.03320E-05   4.95274E-04   7.57379E-06  -2.22430E-04  -5.04179E-07  -5.22557E-08   6.63630E-06
 0.889   1.14822E-04                 0.00000E+00  -5.05928E-06   1.15761E-05   3.13917E-04   5.50893E-06  -1.41092E-04  -2.97083E-07  -1.05560E-07   3.83204E-06
 0.899   6.69350E-05                 0.00000E+00  -2.92456E-06   4.20710E-06   1.83052E-04   3.57722E-06  -8.22898E-05  -2.04369E-07  -7.04759E-08   1.98718E-06
 0.909   3.63563E-05                 0.00000E+00  -1.85950E-06   1.40978E-06   9.94190E-05   1.88789E-06  -4.47425E-05  -6.90999E-08  -1.50216E-08   9.99638E-07
 0.919   1.76523E-05                 0.00000E+00  -7.21216E-07   7.21120E-07   4.83618E-05   1.25720E-06  -2.15131E-05  -5.46208E-08  -3.52348E-08   3.62484E-07
 0.929   7.58873E-06                 0.00000E+00  -4.50620E-07  -4.57471E-08   2.07494E-05   3.61117E-07  -9.34886E-06  -1.73890E-08   5.83323E-10   1.63247E-07
 0.939   2.74787E-06                 0.00000E+00  -9.16553E-08   9.45703E-08   7.55988E-06   2.71544E-07  -3.27321E-06  -6.75793E-09  -9.93478E-09   1.94395E-08
 0.949   8.18977E-07                 0.00000E+00  -5.50801E-08  -3.96249E-08   2.23702E-06   2.16816E-08  -1.01342E-06  -2.76970E-09   1.03986E-09   1.21235E-08
 0.960   1.80261E-07                 0.00000E+00  -3.30420E-09   7.65899E-09   4.99479E-07   2.44517E-08  -2.05648E-07  -1.02825E-10  -1.11540E-09  -2.64103E-09
 0.970   2.80955E-08                 0.00000E+00  -1.73820E-09  -1.93031E-09   7.67854E-08  -6.86369E-11  -3.46617E-08  -1.13589E-10   6.51127E-11  -2.33329E-11
 0.980   2.43405E-09                 0.00000E+00  -7.52577E-11  -5.01297E-11   6.72035E-09   1.10255E-10  -2.85194E-09  -4.56423E-12  -3.59898E-12  -6.55848E-11
 0.990   9.75475E-11                 0.00000E+00  -1.79190E-11  -3.81675E-11   2.39912E-10  -5.03721E-11  -1.53989E-10  -1.94082E-12   3.20576E-12   6.34437E-12
 1.000   6.10736E-13                 0.00000E+00   3.65846E-17   5.76324E-15   1.69342E-12  -7.16970E-15  -6.98316E-13   1.07099E-28   4.48651E-16  -3.96990E-14

 B^s_sinmn; fsq_total:  1.2299E-22
                       MPOL--->             0             1             2             0             1             2             0             1             2
RADIUS        RMS      NTOR--->            -1            -1            -1             0             0             0             1             1             1
 0.010   7.03574E-04                 0.00000E+00   1.75090E-03  -2.27511E-04   0.00000E+00   5.50589E-04  -1.42377E-04   1.13886E-06   1.00694E-03   1.91150E-05
 0.020   7.69044E-04                 0.00000E+00   2.03717E-03  -1.74513E-04   0.00000E+00   4.70177E-04  -6.83934E-05   4.58296E-06   9.56359E-04   4.41205E-05
 0.030   8.11977E-04                 0.00000E+00   2.20704E-03  -1.76914E-04   0.00000E+00   4.16303E-04  -7.20758E-05   8.84427E-06   9.21358E-04   6.28478E-05
 0.040   8.32169E-04                 0.00000E+00   2.27830E-03  -2.24004E-04   0.00000E+00   3.93572E-04  -9.82960E-05   1.30522E-05   9.05771E-04   8.11859E-05
 0.051   8.44412E-04                 0.00000E+00   2.31653E-03  -2.76611E-04   0.00000E+00   3.82087E-04  -1.22427E-04   1.72314E-05   8.96133E-04   1.00772E-04
 0.061   8.53063E-04                 0.00000E+00   2.33972E-03  -3.30474E-04   0.00000E+00   3.73880E-04  -1.47882E-04   2.13996E-05   8.88421E-04   1.20466E-04
 0.071   8.60086E-04                 0.00000E+00   2.35508E-03  -3.85636E-04   0.00000E+00   3.67884E-04  -1.73003E-04   2.55655E-05   8.81475E-04   1.40387E-04
 0.081   8.66251E-04                 0.00000E+00   2.36574E-03  -4.40475E-04   0.00000E+00   3.62819E-04  -1.98395E-04   2.97332E-05   8.74724E-04   1.60448E-04
 0.091   8.72139E-04                 0.00000E+00   2.37361E-03  -4.96076E-04   0.00000E+00   3.58361E-04  -2.23595E-04   3.39073E-05   8.67951E-04   1.80628E-04
 0.101   8.77902E-04                 0.00000E+00   2.37937E-03  -5.51595E-04   0.00000E+00   3.54434E-04  -2.48794E-04   3.80814E-05   8.61043E-04   2.00930E-04
 0.111   8.83803E-04                 0.00000E+00   2.38395E-03  -6.07355E-04   0.00000E+00   3.50702E-04  -2.73809E-04   4.22652E-05   8.53902E-04   2.21333E-04
 0.121   8.89878E-04                 0.00000E+00   2.38752E-03  -6.63253E-04   0.00000E+00   3.47144E-04  -2.98699E-04   4.64505E-05   8.46417E-04   2.41806E-04
 0.131   8.96196E-04                 0.00000E+00   2.39044E-03  -7.19138E-04   0.00000E+00   3.43566E-04  -3.23384E-04   5.06382E-05   8.38548E-04   2.62335E-04
 0.141   9.02803E-04                 0.00000E+00   2.39288E-03  -7.74892E-04   0.00000E+00   3.40039E-04  -3.47852E-04   5.48244E-05   8.30366E-04   2.82860E-04
 0.152   9.09717E-04                 0.00000E+00   2.39484E-03  -8.30430E-04   0.00000E+00   3.36827E-04  -3.72089E-04   5.90042E-05   8.22164E-04   3.03358E-04
 0.162   9.17007E-04                 0.00000E+00   2.39649E-03  -8.85791E-04   0.00000E+00   3.34243E-04  -3.96154E-04   6.31823E-05   8.14178E-04   3.23762E-04
 0.172   9.24677E-04                 0.00000E+00   2.39777E-03  -9.41207E-04   0.00000E+00   3.32284E-04  -4.20108E-04   6.73577E-05   8.06405E-04   3.44049E-04
 0.182   9.32701E-04                 0.00000E+00   2.39880E-03  -9.96665E-04   0.00000E+00   3.30595E-04  -4.43942E-04   7.15165E-05   7.98539E-04   3.64203E-04
 0.192   9.41017E-04                 0.00000E+00   2.39963E-03  -1.05187E-03   0.00000E+00   3.28940E-04  -4.67584E-04   7.56562E-05   7.90385E-04   3.84264E-04
 0.202   9.49624E-04                 0.00000E+00   2.40031E-03  -1.10674E-03   0.00000E+00   3.27477E-04  -4.91031E-04   7.97802E-05   7.82037E-04   4.04243E-04
