
 p_cosmn; fsq_total:  1.7992E-25
                       MPOL--->             0             1             2             0             1             2             0             1             2
RADIUS        RMS      NTOR--->            -1            -1            -1             0             0             0             1             1             1
 0.010   3.87274E-03                 0.00000E+00   3.73506E-07   3.36686E-07   1.16181E-02   2.20475E-05  -5.37171E-05  -1.99690E-07  -2.04445E-06   7.81249E-06
 0.020   3.87251E-03                 0.00000E+00   4.01667E-07   6.94367E-07   1.16171E-02   2.14494E-05  -9.69368E-05   5.16220E-08  -2.97667E-06   1.24044E-05
 0.030   3.87279E-03                 0.00000E+00   4.90649E-07  -3.78423E-08   1.16175E-02   2.20431E-05  -1.40929E-04   1.65363E-08  -3.07312E-06   1.76121E-05
 0.040   3.87278E-03                 0.00000E+00   3.45046E-07   8.18292E-07   1.16168E-02   2.17161E-05  -1.84653E-04  -9.24931E-08  -3.04142E-06   2.29978E-05
 0.051   3.87308E-03                 0.00000E+00   6.17345E-07   5.85687E-07   1.16169E-02   2.18113E-05  -2.29754E-04   2.14563E-07  -3.19590E-06   2.83990E-05
 0.061   3.87338E-03                 0.00000E+00   2.05849E-07   9.05245E-07   1.16168E-02   2.19657E-05  -2.74090E-04  -3.79963E-07  -3.00209E-06   3.39824E-05
 0.071   3.87372E-03                 0.00000E+00   8.60085E-07   1.11665E-06   1.16167E-02   2.17020E-05  -3.19991E-04   5.67812E-07  -3.23905E-06   3.95143E-05
 0.081   3.87421E-03                 0.00000E+00  -3.64587E-08   1.41213E-06   1.16168E-02   2.19821E-05  -3.65391E-04  -7.28923E-07  -3.00736E-06   4.52237E-05
 0.091   3.87469E-03                 0.00000E+00   9.66786E-07   1.60630E-06   1.16167E-02   2.18341E-05  -4.11298E-04   7.80358E-07  -3.20989E-06   5.08989E-05
 0.101   3.87528E-03                 0.00000E+00   1.90702E-07   1.99648E-06   1.16166E-02   2.17283E-05  -4.58403E-04  -6.25011E-07  -3.11737E-06   5.67395E-05
 0.111   3.87597E-03                 0.00000E+00   3.49291E-07   2.75853E-06   1.16168E-02   2.18297E-05  -5.03540E-04   2.09415E-07  -3.13296E-06   6.26086E-05
 0.121   3.87669E-03                 0.00000E+00   8.66749E-07   2.41554E-06   1.16167E-02   2.16268E-05  -5.51882E-04   4.05820E-07  -3.32234E-06   6.86316E-05
 0.131   3.87746E-03                 0.00000E+00  -8.98007E-08   3.92025E-06   1.16167E-02   2.15952E-05  -5.97626E-04  -9.85464E-07  -3.01515E-06   7.46854E-05
 0.141   3.87833E-03                 0.00000E+00   7.69032E-07   3.60675E-06   1.16168E-02   2.19841E-05  -6.45632E-04   1.16600E-06  -3.26451E-06   8.05908E-05
 0.152   3.87925E-03                 0.00000E+00   4.42404E-07   4.07550E-06   1.16166E-02   2.23368E-05  -6.95490E-04  -6.88228E-07  -2.91125E-06   8.64535E-05
 0.162   3.88028E-03                 0.00000E+00   4.46764E-07   5.36111E-06   1.16167E-02   2.23089E-05  -7.42813E-04  -3.12794E-07  -2.95967E-06   9.22151E-05
 0.172   3.88140E-03                 0.00000E+00   9.79232E-07   4.18116E-06   1.16167E-02   2.19828E-05  -7.93930E-04   1.23077E-06  -3.14653E-06   9.80289E-05
 0.182   3.88252E-03                 0.00000E+00  -9.97333E-08   5.89674E-06   1.16165E-02   2.19630E-05  -8.43106E-04  -1.32566E-06  -3.06037E-06   1.04195E-04
 0.192   3.88377E-03                 0.00000E+00   4.12197E-07   6.75930E-06   1.16166E-02   2.21809E-05  -8.90983E-04   3.33251E-07  -3.05993E-06   1.10182E-04
 0.202   3.88510E-03                 0.00000E+00   1.19696E-06   5.51918E-06   1.16164E-02   2.22972E-05  -9.43611E-04   1.05406E-06  -3.17376E-06   1.16158E-04
 0.212   3.88644E-03                 0.00000E+00   8.52722E-08   7.92315E-06   1.16162E-02   2.21982E-05  -9.93814E-04  -1.52659E-06  -2.86812E-06   1.22222E-04
 0.222   3.88794E-03                 0.00000E+00   3.30445E-07   8.40385E-06   1.16163E-02   2.22143E-05  -1.04322E-03   4.19761E-07  -3.13420E-06   1.28132E-04
 0.232   3.88951E-03                 0.00000E+00   9.35625E-07   7.21238E-06   1.16161E-02   2.23649E-05  -1.09684E-03   1.22881E-06  -3.12608E-06   1.34163E-04
 0.242   3.89108E-03                 0.00000E+00   1.62711E-07   9.60633E-06   1.16158E-02   2.23941E-05  -1.14811E-03  -1.50423E-06  -3.01464E-06   1.40386E-04
 0.253   3.89277E-03                 0.00000E+00   4.01065E-07   1.04773E-05   1.16157E-02   2.22907E-05  -1.19805E-03  -9.75536E-08  -3.01264E-06   1.46359E-04
 0.263   3.89457E-03                 0.00000E+00   1.12820E-06   9.01129E-06   1.16154E-02   2.22711E-05  -1.25223E-03   1.61277E-06  -3.24065E-06   1.52329E-04
 0.273   3.89639E-03                 0.00000E+00   2.27845E-07   1.11178E-05   1.16149E-02   2.23100E-05  -1.30555E-03  -9.29562E-07  -2.97427E-06   1.58566E-04
 0.283   3.89825E-03                 0.00000E+00  -1.73349E-07   1.29830E-05   1.16147E-02   2.23654E-05  -1.35590E-03  -1.12599E-06  -3.07766E-06   1.64631E-04
 0.293   3.90021E-03                 0.00000E+00   8.92584E-07   1.11826E-05   1.16142E-02   2.24096E-05  -1.40931E-03   1.48436E-06  -3.14231E-06   1.70553E-04
 0.303   3.90222E-03                 0.00000E+00   8.71384E-07   1.16690E-05   1.16133E-02   2.23719E-05  -1.46464E-03   5.01579E-07  -3.16066E-06   1.76669E-04
 0.313   3.90424E-03                 0.00000E+00  -1.11911E-07   1.45502E-05   1.16126E-02   2.22268E-05  -1.51679E-03  -1.67494E-06  -2.94156E-06   1.82864E-04
 0.323   3.90629E-03                 0.00000E+00   2.41461E-07   1.38849E-05   1.16118E-02   2.21137E-05  -1.56867E-03  -3.89326E-08  -3.17767E-06   1.88735E-04
 0.333   3.90839E-03                 0.00000E+00   9.79559E-07   1.18520E-05   1.16105E-02   2.20812E-05  -1.62399E-03   1.63491E-06  -3.14180E-06   1.94634E-04
 0.343   3.91046E-03                 0.00000E+00   1.88972E-07   1.34930E-05   1.16088E-02   2.21037E-05  -1.67913E-03  -2.30528E-07  -3.09566E-06   2.00687E-04
 0.354   3.91245E-03                 0.00000E+00  -5.64062E-07   1.46934E-05   1.16071E-02   2.20536E-05  -1.73139E-03  -1.62373E-06  -2.95473E-06   2.06743E-04
 0.364   3.91435E-03                 0.00000E+00   2.18141E-07   1.16212E-05   1.16047E-02   2.18444E-05  -1.78431E-03   2.38441E-07  -3.20057E-06   2.12467E-04
 0.374   3.91618E-03                 0.00000E+00   8.93125E-07   8.53842E-06   1.16015E-02   2.15056E-05  -1.84008E-03   1.51726E-06  -3.10145E-06   2.18250E-04
 0.384   3.91790E-03                 0.00000E+00  -8.09604E-08   8.83327E-06   1.15977E-02   2.12050E-05  -1.89547E-03  -1.49091E-07  -3.04498E-06   2.24100E-04
 0.394   3.91941E-03                 0.00000E+00  -1.01426E-06   7.68748E-06   1.15934E-02   2.09244E-05  -1.94836E-03  -1.58667E-06  -2.92340E-06   2.29981E-04
 0.404   3.92060E-03                 0.00000E+00  -5.03827E-07   1.82436E-06   1.15879E-02   2.05096E-05  -2.00129E-03  -2.58779E-07  -3.16069E-06   2.35514E-04
 0.414   3.92148E-03                 0.00000E+00   1.28074E-07  -4.92775E-06   1.15808E-02   1.99421E-05  -2.05647E-03   1.32414E-06  -3.06299E-06   2.41044E-04
 0.424   3.92199E-03                 0.00000E+00  -6.90383E-07  -9.52508E-06   1.15722E-02   1.93841E-05  -2.11207E-03   5.33018E-07  -2.98569E-06   2.46577E-04
 0.434   3.92195E-03                 0.00000E+00  -1.82721E-06  -1.59952E-05   1.15620E-02   1.87244E-05  -2.16564E-03  -1.28707E-06  -2.80739E-06   2.52290E-04
 0.444   3.92114E-03                 0.00000E+00  -1.61612E-06  -2.85821E-05   1.15495E-02   1.75578E-05  -2.21792E-03  -1.25611E-06  -3.01445E-06   2.57729E-04
 0.455   3.91950E-03                 0.00000E+00  -8.85727E-07  -4.47698E-05   1.15340E-02   1.57580E-05  -2.27124E-03   3.80961E-07  -2.97436E-06   2.63048E-04
 0.465   3.91701E-03                 0.00000E+00  -1.58825E-06  -6.03529E-05   1.15153E-02   1.37908E-05  -2.32578E-03   1.14386E-06  -2.90664E-06   2.68129E-04
 0.475   3.91351E-03                 0.00000E+00  -3.70110E-06  -7.67348E-05   1.14934E-02   1.20471E-05  -2.37947E-03  -1.05518E-07  -2.62133E-06   2.73409E-04
 0.485   3.90868E-03                 0.00000E+00  -5.11511E-06  -9.94163E-05   1.14675E-02   1.02061E-05  -2.43087E-03  -1.60215E-06  -2.72521E-06   2.78579E-04
 0.495   3.90223E-03                 0.00000E+00  -4.98182E-06  -1.30139E-04   1.14365E-02   7.58109E-06  -2.48091E-03  -1.47161E-06  -2.75052E-06   2.83744E-04
 0.505   3.89400E-03                 0.00000E+00  -4.69858E-06  -1.65843E-04   1.13996E-02   4.03157E-06  -2.53124E-03   3.76847E-08  -2.78897E-06   2.88485E-04
 0.515   3.88386E-03                 0.00000E+00  -5.86679E-06  -2.04723E-04   1.13562E-02  -3.46421E-08  -2.58201E-03   8.19470E-07  -2.43315E-06   2.93287E-04
 0.525   3.87146E-03                 0.00000E+00  -7.91418E-06  -2.50396E-04   1.13056E-02  -4.51260E-06  -2.63159E-03  -1.88835E-07  -2.29871E-06   2.98053E-04
 0.535   3.85635E-03                 0.00000E+00  -9.20073E-06  -3.07988E-04   1.12464E-02  -1.01435E-05  -2.67844E-03  -2.01714E-06  -2.22754E-06   3.03181E-04
 0.545   3.83805E-03                 0.00000E+00  -9.63012E-06  -3.78223E-04   1.11770E-02  -1.77232E-05  -2.72261E-03  -2.57225E-06  -2.42713E-06   3.07981E-04
 0.556   3.81633E-03                 0.00000E+00  -1.11028E-05  -4.57913E-04   1.10961E-02  -2.70456E-05  -2.76538E-03  -1.37015E-06  -2.26623E-06   3.12549E-04
 0.566   3.79095E-03                 0.00000E+00  -1.52675E-05  -5.45404E-04   1.10028E-02  -3.69393E-05  -2.80725E-03   1.69031E-07  -2.03721E-06   3.16463E-04
 0.576   3.76159E-03                 0.00000E+00  -2.13911E-05  -6.43707E-04   1.08959E-02  -4.65946E-05  -2.84695E-03  -9.12955E-08  -1.67663E-06   3.20548E-04
 0.586   3.72773E-03                 0.00000E+00  -2.73119E-05  -7.57451E-04   1.07738E-02  -5.65156E-05  -2.88215E-03  -2.23884E-06  -1.74825E-06   3.24555E-04
 0.596   3.68893E-03                 0.00000E+00  -3.18378E-05  -8.88591E-04   1.06345E-02  -6.79726E-05  -2.91159E-03  -4.42978E-06  -1.83275E-06   3.28835E-04
 0.606   3.64491E-03                 0.00000E+00  -3.59331E-05  -1.03590E-03   1.04765E-02  -8.15799E-05  -2.93594E-03  -4.42662E-06  -1.90627E-06   3.32380E-04
 0.616   3.59561E-03                 0.00000E+00  -4.12591E-05  -1.19853E-03   1.02982E-02  -9.67785E-05  -2.95692E-03  -2.54016E-06  -1.53617E-06   3.35614E-04
 0.626   3.54102E-03                 0.00000E+00  -4.83159E-05  -1.37865E-03   1.00980E-02  -1.12825E-04  -2.97475E-03  -1.12834E-06  -1.23200E-06   3.38232E-04
 0.636   3.48102E-03                 0.00000E+00  -5.64898E-05  -1.57979E-03   9.87428E-03  -1.29998E-04  -2.98732E-03  -2.56806E-06  -1.12391E-06   3.41377E-04
 0.646   3.41538E-03                 0.00000E+00  -6.58811E-05  -1.80290E-03   9.62498E-03  -1.49305E-04  -2.99128E-03  -6.06881E-06  -1.49453E-06   3.44248E-04
 0.657   3.34395E-03                 0.00000E+00  -7.84706E-05  -2.04480E-03   9.34841E-03  -1.70594E-04  -2.98467E-03  -8.62451E-06  -1.83982E-06   3.46810E-04
 0.667   3.26671E-03                 0.00000E+00  -9.68347E-05  -2.30053E-03   9.04312E-03  -1.91118E-04  -2.96740E-03  -7.79633E-06  -1.94235E-06   3.47334E-04
 0.677   3.18390E-03                 0.00000E+00  -1.21624E-04  -2.56636E-03   8.70811E-03  -2.06337E-04  -2.93945E-03  -5.22766E-06  -1.79943E-06   3.46465E-04
 0.687   3.09550E-03                 0.00000E+00  -1.50991E-04  -2.83820E-03   8.34273E-03  -2.12455E-04  -2.89761E-03  -4.87213E-06  -1.84946E-06   3.43834E-04
 0.697   3.00103E-03                 0.00000E+00  -1.81732E-04  -3.10881E-03   7.94717E-03  -2.07895E-04  -2.83560E-03  -8.98608E-06  -2.40475E-06   3.40822E-04
 0.707   2.89963E-03                 0.00000E+00  -2.10671E-04  -3.36699E-03   7.52268E-03  -1.92418E-04  -2.74756E-03  -1.44075E-05  -2.89589E-06   3.36053E-04
 0.717   2.79109E-03                 0.00000E+00  -2.33642E-04  -3.60180E-03   7.07205E-03  -1.65197E-04  -2.63326E-03  -1.58062E-05  -2.93417E-06   3.29546E-04
 0.727   2.67615E-03                 0.00000E+00  -2.44951E-04  -3.80458E-03   6.60005E-03  -1.25600E-04  -2.49838E-03  -1.17054E-05  -1.91460E-06   3.20134E-04
 0.737   2.55580E-03                 0.00000E+00  -2.40039E-04  -3.96566E-03   6.11405E-03  -7.60214E-05  -2.34979E-03  -7.18524E-06  -1.02536E-06   3.09740E-04
 0.747   2.42965E-03                 0.00000E+00  -2.20085E-04  -4.07006E-03   5.62394E-03  -2.32722E-05  -2.19013E-03  -7.40608E-06  -1.80171E-07   2.98568E-04
 0.758   2.29643E-03                 0.00000E+00  -1.91522E-04  -4.10336E-03   5.14058E-03   2.60951E-05  -2.01983E-03  -9.72425E-06  -2.52448E-08   2.86749E-04
 0.768   2.15623E-03                 0.00000E+00  -1.58967E-04  -4.06116E-03   4.67399E-03   7.09576E-05  -1.84401E-03  -6.81575E-06   1.31468E-06   2.71951E-04
 0.778   2.01055E-03                 0.00000E+00  -1.20998E-04  -3.94575E-03   4.23324E-03   1.14268E-04  -1.67313E-03   1.35249E-06   2.56454E-06   2.54283E-04
 0.788   1.85913E-03                 0.00000E+00  -7.79807E-05  -3.75186E-03   3.82826E-03   1.54676E-04  -1.51330E-03   5.57980E-06   4.14000E-06   2.35068E-04
 0.798   1.70399E-03                 0.00000E+00  -3.58130E-05  -3.48477E-03   3.47000E-03   1.85289E-04  -1.36582E-03   4.68452E-06   4.24017E-06   2.15606E-04
 0.808   1.55577E-03                 0.00000E+00   7.42218E-06  -3.18042E-03   3.16891E-03   1.97682E-04  -1.24453E-03   6.70376E-06   5.26635E-06   1.96842E-04
 0.818   1.42605E-03                 0.00000E+00   5.47478E-05  -2.86954E-03   2.93567E-03   1.81892E-04  -1.17541E-03   1.06251E-05   5.35486E-06   1.79551E-04
 0.828   1.32215E-03                 0.00000E+00   7.34737E-05  -2.57425E-03   2.77775E-03   1.42722E-04  -1.15664E-03   8.87387E-06   4.37406E-06   1.62233E-04
 0.838   1.24347E-03                 0.00000E+00   4.79969E-05  -2.33422E-03   2.67406E-03   1.24354E-04  -1.13062E-03   4.39455E-06   1.37042E-06   1.43400E-04
 0.848   1.14262E-03                 0.00000E+00   3.46704E-05  -2.01050E-03   2.57179E-03   1.75368E-04  -1.02299E-03   1.06454E-05   4.39830E-06   1.23992E-04
 0.859   9.69221E-04                 0.00000E+00   7.17379E-05  -1.22461E-03   2.46840E-03   2.54636E-04  -8.84596E-04   3.57889E-05   1.38874E-05   8.85417E-05
 0.869   8.45369E-04                 0.00000E+00   5.79816E-05   1.40312E-04   2.37273E-03   2.30088E-04  -8.50266E-04   4.53925E-05   1.86409E-05   2.51758E-05
 0.879   8.70949E-04                 0.00000E+00  -3.22529E-05   1.23037E-03   2.13068E-03   6.72837E-05  -8.75563E-04   9.72178E-06   6.64551E-06  -3.20265E-05
 0.889   7.10458E-04                 0.00000E+00  -6.48413E-05   1.23622E-03   1.56689E-03  -5.69686E-05  -7.41587E-04  -1.63760E-05  -6.05640E-06  -4.09153E-05
 0.899   3.95213E-04                 0.00000E+00  -4.14522E-05   6.83013E-04   8.59559E-04  -5.76420E-05  -4.41128E-04  -1.21236E-05  -6.08700E-06  -2.39818E-05
 0.909   1.56032E-04                 0.00000E+00  -1.98211E-05   2.57381E-04   3.43522E-04  -2.63521E-05  -1.83395E-04  -6.76493E-06  -3.33194E-06  -9.17067E-06
 0.919   4.40418E-05                 0.00000E+00  -5.28323E-06   6.10147E-05   1.03297E-04  -7.04780E-06  -5.45682E-05  -1.54855E-06  -8.70117E-07  -2.36278E-06
 0.929   1.14323E-05                 0.00000E+00  -1.36784E-06   1.18937E-05   2.90786E-05  -2.44942E-07  -1.36733E-05  -3.14631E-07  -1.67601E-07  -4.86633E-07
 0.939   3.40190E-06                 0.00000E+00  -3.84178E-07   2.71377E-06   9.01917E-06   2.50005E-07  -3.90065E-06  -7.56502E-08  -3.39749E-08  -1.20744E-07
 0.949   1.01973E-06                 0.00000E+00  -9.28671E-08   7.74718E-07   2.68875E-06  -3.36196E-09  -1.23218E-06  -1.96400E-08  -9.25475E-09  -4.13319E-08
 0.960   2.22254E-07                 0.00000E+00  -9.85239E-09   1.52328E-07   5.81426E-07  -2.55780E-08  -2.87125E-07  -1.81806E-09  -1.14218E-09  -1.06634E-08
 0.970   3.44852E-08                 0.00000E+00  -7.63159E-10   2.05825E-08   9.06807E-08  -4.77097E-09  -4.50522E-08  -9.96671E-11  -8.43837E-11  -1.82889E-09
 0.980   2.77633E-09                 0.00000E+00  -3.51928E-11   1.19923E-09   7.45438E-09  -2.55365E-10  -3.50366E-09  -1.49134E-12  -9.69529E-13  -1.55281E-10
 0.990   1.07884E-10                 0.00000E+00   1.15645E-11   5.66100E-11   2.75548E-10  -3.81806E-11  -1.54815E-10   1.84537E-12   1.57262E-12  -7.31480E-12
 1.000   1.15940E-12                 0.00000E+00   6.94507E-17   1.09407E-14   3.21472E-12  -1.36107E-14  -1.32565E-12   1.42799E-28   8.51701E-16  -7.53630E-14

 B^s_sinmn; fsq_total:  1.7992E-25
                       MPOL--->             0             1             2             0             1             2             0             1             2
RADIUS        RMS      NTOR--->            -1            -1            -1             0             0             0             1             1             1
 0.010   6.12332E-04                 0.00000E+00   1.12497E-03  -1.12042E-03   0.00000E+00  -3.48383E-04   5.37087E-04   2.99847E-07   5.48440E-04   3.78204E-04
 0.020   7.05090E-04                 0.00000E+00   1.34387E-03  -1.37010E-03   0.00000E+00  -3.09606E-04   3.87337E-05   1.16928E-06   8.30145E-04   6.85187E-05
 0.030   8.33897E-04                 0.00000E+00   1.44504E-03  -1.80832E-03   0.00000E+00  -2.81488E-04  -4.72557E-05   2.25870E-06   9.03878E-04   4.27227E-05
 0.040   9.83609E-04                 0.00000E+00   1.50326E-03  -2.35430E-03   0.00000E+00  -2.75410E-04  -4.82529E-05   3.68055E-06   9.06330E-04   7.24342E-05
 0.051   1.15007E-03                 0.00000E+00   1.54587E-03  -2.93281E-03   0.00000E+00  -2.74438E-04  -6.19383E-05   5.12457E-06   9.08969E-04   8.68876E-05
 0.061   1.32594E-03                 0.00000E+00   1.58641E-03  -3.52051E-03   0.00000E+00  -2.74339E-04  -7.27901E-05   6.72994E-06   9.06103E-04   1.04316E-04
 0.071   1.50755E-03                 0.00000E+00   1.62603E-03  -4.11052E-03   0.00000E+00  -2.77087E-04  -8.40820E-05   8.42257E-06   9.03262E-04   1.19087E-04
 0.081   1.69538E-03                 0.00000E+00   1.66750E-03  -4.70910E-03   0.00000E+00  -2.78924E-04  -9.44332E-05   1.02661E-05   8.98770E-04   1.33881E-04
 0.091   1.88736E-03                 0.00000E+00   1.71326E-03  -5.31145E-03   0.00000E+00  -2.81793E-04  -1.06176E-04   1.22822E-05   8.94199E-04   1.47602E-04
 0.101   2.08111E-03                 0.00000E+00   1.76088E-03  -5.91338E-03   0.00000E+00  -2.85145E-04  -1.14424E-04   1.44380E-05   8.88885E-04   1.60788E-04
 0.111   2.27992E-03                 0.00000E+00   1.81406E-03  -6.52551E-03   0.00000E+00  -2.87604E-04  -1.26719E-04   1.68202E-05   8.83174E-04   1.73096E-04
 0.121   2.47904E-03                 0.00000E+00   1.87063E-03  -7.13475E-03   0.00000E+00  -2.91325E-04  -1.34099E-04   1.93880E-05   8.77238E-04   1.84879E-04
 0.131   2.68035E-03                 0.00000E+00   1.93164E-03  -7.74746E-03   0.00000E+00  -2.94676E-04  -1.44352E-04   2.21903E-05   8.70492E-04   1.95680E-04
 0.141   2.88457E-03                 0.00000E+00   1.99749E-03  -8.36632E-03   0.00000E+00  -2.98029E-04  -1.53888E-04   2.52337E-05   8.63754E-04   2.05818E-04
 0.152   3.08846E-03                 0.00000E+00   2.06769E-03  -8.98185E-03   0.00000E+00  -3.01799E-04  -1.60525E-04   2.85331E-05   8.56873E-04   2.14933E-04
 0.162   3.29541E-03                 0.00000E+00   2.14278E-03  -9.60471E-03   0.00000E+00  -3.04280E-04  -1.71693E-04   3.21047E-05   8.50092E-04   2.23090E-04
 0.172   3.50304E-03                 0.00000E+00   2.22239E-03  -1.02279E-02   0.00000E+00  -3.06560E-04  -1.78924E-04   3.59595E-05   8.43856E-04   2.30394E-04
 0.182   3.71079E-03                 0.00000E+00   2.30656E-03  -1.08499E-02   0.00000E+00  -3.08807E-04  -1.86637E-04   4.01261E-05   8.37306E-04   2.36740E-04
 0.192   3.92162E-03                 0.00000E+00   2.39576E-03  -1.14798E-02   0.00000E+00  -3.10667E-04  -1.97230E-04   4.46163E-05   8.30559E-04   2.42107E-04
 0.202   4.13183E-03                 0.00000E+00   2.48924E-03  -1.21066E-02   0.00000E+00  -3.12985E-04  -2.03213E-04   4.94237E-05   8.23853E-04   2.46596E-04
