
 p_cosmn; fsq_total:  7.5044E-23
                       MPOL--->             0             1             2             0             1             2             0             1             2
RADIUS        RMS      NTOR--->            -1            -1            -1             0             0             0             1             1             1
 0.010   3.87051E-03                 0.00000E+00   6.41612E-07   4.16109E-07   1.16114E-02   2.17105E-05  -5.37268E-05  -4.78361E-08  -2.14019E-06   7.73074E-06
 0.020   3.87093E-03                 0.00000E+00   6.42888E-07   4.41889E-07   1.16124E-02   2.17623E-05  -9.69678E-05   3.64396E-08  -2.99849E-06   1.24072E-05
 0.030   3.87115E-03                 0.00000E+00   3.75368E-07   4.21979E-07   1.16126E-02   2.17980E-05  -1.40719E-04  -2.88205E-08  -3.02620E-06   1.76184E-05
 0.040   3.87136E-03                 0.00000E+00   5.51873E-07   6.00583E-07   1.16126E-02   2.18128E-05  -1.84811E-04   2.61407E-08  -3.13128E-06   2.29646E-05
 0.051   3.87163E-03                 0.00000E+00   4.03272E-07   7.42310E-07   1.16126E-02   2.18335E-05  -2.29380E-04  -2.38329E-08  -3.07775E-06   2.84196E-05
 0.061   3.87195E-03                 0.00000E+00   5.24886E-07   9.26110E-07   1.16125E-02   2.18320E-05  -2.74287E-04   2.10779E-08  -3.14201E-06   3.39367E-05
 0.071   3.87236E-03                 0.00000E+00   4.49322E-07   1.15750E-06   1.16126E-02   2.18679E-05  -3.19650E-04  -1.78084E-08  -3.09418E-06   3.95302E-05
 0.081   3.87282E-03                 0.00000E+00   5.11920E-07   1.39526E-06   1.16126E-02   2.18309E-05  -3.65313E-04   1.34289E-08  -3.14107E-06   4.51823E-05
 0.091   3.87337E-03                 0.00000E+00   4.63986E-07   1.67166E-06   1.16127E-02   2.18613E-05  -4.11391E-04  -8.77985E-09  -3.11238E-06   5.09019E-05
 0.101   3.87398E-03                 0.00000E+00   5.06866E-07   2.03731E-06   1.16128E-02   2.17912E-05  -4.57674E-04   4.49273E-09  -3.15626E-06   5.67023E-05
 0.111   3.87467E-03                 0.00000E+00   4.51195E-07   2.42848E-06   1.16129E-02   2.17089E-05  -5.04212E-04  -1.55067E-09  -3.17122E-06   6.26016E-05
 0.121   3.87543E-03                 0.00000E+00   4.59782E-07   2.94386E-06   1.16130E-02   2.16489E-05  -5.50847E-04  -1.85248E-10  -3.20762E-06   6.86074E-05
 0.131   3.87625E-03                 0.00000E+00   4.31664E-07   3.47391E-06   1.16131E-02   2.16740E-05  -5.97918E-04   1.19236E-09  -3.18410E-06   7.46411E-05
 0.141   3.87711E-03                 0.00000E+00   4.71183E-07   3.89904E-06   1.16131E-02   2.19420E-05  -6.45646E-04  -2.08800E-09  -3.10023E-06   8.05990E-05
 0.152   3.87806E-03                 0.00000E+00   5.39584E-07   4.34022E-06   1.16131E-02   2.22347E-05  -6.94371E-04   4.87232E-09  -3.00431E-06   8.64090E-05
 0.162   3.87915E-03                 0.00000E+00   6.38538E-07   4.69231E-06   1.16133E-02   2.23506E-05  -7.43718E-04  -6.94274E-09  -2.97417E-06   9.21622E-05
 0.172   3.88030E-03                 0.00000E+00   5.05473E-07   5.13542E-06   1.16134E-02   2.20635E-05  -7.93117E-04   5.59252E-09  -3.06800E-06   9.80581E-05
 0.182   3.88148E-03                 0.00000E+00   4.74164E-07   5.62112E-06   1.16134E-02   2.19711E-05  -8.42388E-04  -3.16507E-09  -3.12075E-06   1.04104E-04
 0.192   3.88270E-03                 0.00000E+00   4.58051E-07   6.32174E-06   1.16134E-02   2.20404E-05  -8.92027E-04   1.77307E-09  -3.09795E-06   1.10181E-04
 0.202   3.88407E-03                 0.00000E+00   5.90205E-07   6.90420E-06   1.16134E-02   2.23189E-05  -9.42383E-04   1.92354E-09  -3.03597E-06   1.16148E-04
 0.212   3.88553E-03                 0.00000E+00   5.58875E-07   7.52764E-06   1.16135E-02   2.22954E-05  -9.93256E-04  -7.61782E-09  -3.03055E-06   1.22127E-04
 0.222   3.88706E-03                 0.00000E+00   5.30650E-07   8.05040E-06   1.16136E-02   2.22920E-05  -1.04435E-03   1.14235E-08  -3.06921E-06   1.28117E-04
 0.232   3.88863E-03                 0.00000E+00   5.11993E-07   8.77639E-06   1.16135E-02   2.22636E-05  -1.09564E-03  -1.33770E-08  -3.07549E-06   1.34209E-04
 0.242   3.89030E-03                 0.00000E+00   5.31864E-07   9.51429E-06   1.16135E-02   2.23490E-05  -1.14728E-03   1.50249E-08  -3.08122E-06   1.40242E-04
 0.253   3.89206E-03                 0.00000E+00   5.63138E-07   1.02615E-05   1.16135E-02   2.23762E-05  -1.19930E-03  -1.58586E-08  -3.06837E-06   1.46334E-04
 0.263   3.89389E-03                 0.00000E+00   4.99906E-07   1.10421E-05   1.16134E-02   2.23728E-05  -1.25156E-03   1.32562E-08  -3.09125E-06   1.52368E-04
 0.273   3.89580E-03                 0.00000E+00   5.50039E-07   1.18228E-05   1.16133E-02   2.24140E-05  -1.30411E-03  -9.00822E-09  -3.08878E-06   1.58479E-04
 0.283   3.89778E-03                 0.00000E+00   4.79925E-07   1.27428E-05   1.16131E-02   2.23963E-05  -1.35685E-03   2.30050E-09  -3.09825E-06   1.64520E-04
 0.293   3.89984E-03                 0.00000E+00   5.40723E-07   1.35684E-05   1.16130E-02   2.24531E-05  -1.40989E-03   3.60974E-09  -3.10090E-06   1.70611E-04
 0.303   3.90195E-03                 0.00000E+00   4.46953E-07   1.45401E-05   1.16127E-02   2.24128E-05  -1.46309E-03  -1.21721E-08  -3.10162E-06   1.76637E-04
 0.313   3.90415E-03                 0.00000E+00   4.94167E-07   1.54387E-05   1.16124E-02   2.24795E-05  -1.51653E-03   1.71677E-08  -3.11249E-06   1.82690E-04
 0.323   3.90638E-03                 0.00000E+00   4.17428E-07   1.64454E-05   1.16119E-02   2.24367E-05  -1.57014E-03  -2.43818E-08  -3.10230E-06   1.88680E-04
 0.333   3.90866E-03                 0.00000E+00   4.07805E-07   1.74085E-05   1.16113E-02   2.24942E-05  -1.62391E-03   2.26330E-08  -3.11821E-06   1.94671E-04
 0.343   3.91098E-03                 0.00000E+00   3.66648E-07   1.84099E-05   1.16106E-02   2.24780E-05  -1.67788E-03  -2.38374E-08  -3.10338E-06   2.00600E-04
 0.354   3.91331E-03                 0.00000E+00   2.87002E-07   1.94155E-05   1.16096E-02   2.25042E-05  -1.73193E-03   1.00024E-08  -3.11593E-06   2.06514E-04
 0.364   3.91565E-03                 0.00000E+00   2.62461E-07   2.03860E-05   1.16084E-02   2.25348E-05  -1.78621E-03  -4.67184E-09  -3.10575E-06   2.12351E-04
 0.374   3.91797E-03                 0.00000E+00   1.34818E-07   2.13610E-05   1.16068E-02   2.25280E-05  -1.84050E-03  -2.11170E-08  -3.10482E-06   2.18173E-04
 0.384   3.92024E-03                 0.00000E+00   7.13167E-08   2.22849E-05   1.16048E-02   2.25948E-05  -1.89499E-03   2.48246E-08  -3.10676E-06   2.23886E-04
 0.394   3.92242E-03                 0.00000E+00  -6.59790E-08   2.31198E-05   1.16023E-02   2.25872E-05  -1.94950E-03  -5.49327E-08  -3.08741E-06   2.29596E-04
 0.404   3.92448E-03                 0.00000E+00  -2.25502E-07   2.39496E-05   1.15992E-02   2.26498E-05  -2.00410E-03   4.08589E-08  -3.09932E-06   2.35160E-04
 0.414   3.92639E-03                 0.00000E+00  -3.64503E-07   2.45366E-05   1.15953E-02   2.26882E-05  -2.05878E-03  -6.58144E-08  -3.06832E-06   2.40721E-04
 0.424   3.92805E-03                 0.00000E+00  -6.35184E-07   2.51361E-05   1.15904E-02   2.27115E-05  -2.11337E-03   1.87203E-08  -3.07525E-06   2.46124E-04
 0.434   3.92945E-03                 0.00000E+00  -8.29883E-07   2.53903E-05   1.15845E-02   2.28153E-05  -2.16808E-03  -4.00383E-08  -3.04908E-06   2.51483E-04
 0.444   3.93045E-03                 0.00000E+00  -1.17960E-06   2.55213E-05   1.15771E-02   2.28100E-05  -2.22256E-03  -4.23274E-08  -3.03129E-06   2.56710E-04
 0.455   3.93101E-03                 0.00000E+00  -1.52275E-06   2.53291E-05   1.15681E-02   2.29441E-05  -2.27706E-03   1.66472E-09  -3.02277E-06   2.61816E-04
 0.465   3.93100E-03                 0.00000E+00  -1.92646E-06   2.47117E-05   1.15571E-02   2.29725E-05  -2.33129E-03  -1.06182E-07  -2.97222E-06   2.66824E-04
 0.475   3.93028E-03                 0.00000E+00  -2.47730E-06   2.38162E-05   1.15438E-02   2.30700E-05  -2.38527E-03   7.07358E-09  -2.97437E-06   2.71645E-04
 0.485   3.92874E-03                 0.00000E+00  -2.99229E-06   2.21999E-05   1.15278E-02   2.31941E-05  -2.43896E-03  -1.23146E-07  -2.90609E-06   2.76351E-04
 0.495   3.92617E-03                 0.00000E+00  -3.72584E-06   2.01327E-05   1.15084E-02   2.32298E-05  -2.49206E-03  -6.51139E-08  -2.88975E-06   2.80869E-04
 0.505   3.92242E-03                 0.00000E+00  -4.49629E-06   1.72507E-05   1.14852E-02   2.34355E-05  -2.54473E-03  -8.50503E-08  -2.83259E-06   2.85163E-04
 0.515   3.91722E-03                 0.00000E+00  -5.36065E-06   1.34148E-05   1.14575E-02   2.34810E-05  -2.59651E-03  -1.91254E-07  -2.76779E-06   2.89328E-04
 0.525   3.91035E-03                 0.00000E+00  -6.50321E-06   8.78778E-06   1.14246E-02   2.36680E-05  -2.64743E-03  -6.09133E-08  -2.73440E-06   2.93124E-04
 0.535   3.90152E-03                 0.00000E+00  -7.56109E-06   2.62427E-06   1.13857E-02   2.38411E-05  -2.69724E-03  -2.83365E-07  -2.62245E-06   2.96804E-04
 0.545   3.89037E-03                 0.00000E+00  -9.04050E-06  -4.60310E-06   1.13396E-02   2.39325E-05  -2.74552E-03  -1.49590E-07  -2.58515E-06   3.00053E-04
 0.556   3.87660E-03                 0.00000E+00  -1.05154E-05  -1.36201E-05   1.12855E-02   2.42554E-05  -2.79230E-03  -2.81021E-07  -2.46604E-06   3.03043E-04
 0.566   3.85972E-03                 0.00000E+00  -1.22048E-05  -2.45508E-05   1.12221E-02   2.43283E-05  -2.83683E-03  -3.62942E-07  -2.37363E-06   3.05672E-04
 0.576   3.83933E-03                 0.00000E+00  -1.42931E-05  -3.72259E-05   1.11480E-02   2.46598E-05  -2.87907E-03  -2.58024E-07  -2.28601E-06   3.07779E-04
 0.586   3.81494E-03                 0.00000E+00  -1.62279E-05  -5.28465E-05   1.10620E-02   2.49135E-05  -2.91837E-03  -5.70733E-07  -2.12045E-06   3.09582E-04
 0.596   3.78591E-03                 0.00000E+00  -1.88350E-05  -7.05605E-05   1.09622E-02   2.50994E-05  -2.95411E-03  -3.89310E-07  -2.04568E-06   3.10698E-04
 0.606   3.75178E-03                 0.00000E+00  -2.13330E-05  -9.16503E-05   1.08471E-02   2.56124E-05  -2.98603E-03  -6.34069E-07  -1.85943E-06   3.11320E-04
 0.616   3.71177E-03                 0.00000E+00  -2.41519E-05  -1.16055E-04   1.07147E-02   2.57556E-05  -3.01294E-03  -7.36863E-07  -1.72361E-06   3.11338E-04
 0.626   3.66527E-03                 0.00000E+00  -2.74494E-05  -1.43683E-04   1.05632E-02   2.63114E-05  -3.03451E-03  -6.32932E-07  -1.59170E-06   3.10439E-04
 0.636   3.61159E-03                 0.00000E+00  -3.04313E-05  -1.75972E-04   1.03906E-02   2.67366E-05  -3.04964E-03  -1.09992E-06  -1.35455E-06   3.09053E-04
 0.646   3.54987E-03                 0.00000E+00  -3.42397E-05  -2.11760E-04   1.01945E-02   2.71181E-05  -3.05722E-03  -8.41036E-07  -1.27459E-06   3.06466E-04
 0.657   3.47951E-03                 0.00000E+00  -3.76884E-05  -2.52516E-04   9.97307E-03   2.79417E-05  -3.05667E-03  -1.24026E-06  -1.00428E-06   3.03162E-04
 0.667   3.39964E-03                 0.00000E+00  -4.13945E-05  -2.98009E-04   9.72412E-03   2.82887E-05  -3.04615E-03  -1.35734E-06  -8.83197E-07   2.98782E-04
 0.677   3.30961E-03                 0.00000E+00  -4.54676E-05  -3.47573E-04   9.44569E-03   2.92905E-05  -3.02503E-03  -1.23902E-06  -6.98022E-07   2.93102E-04
 0.687   3.20883E-03                 0.00000E+00  -4.86444E-05  -4.03084E-04   9.13623E-03   3.00373E-05  -2.99177E-03  -1.89657E-06  -4.66302E-07   2.86643E-04
 0.697   3.09657E-03                 0.00000E+00  -5.27466E-05  -4.62053E-04   8.79386E-03   3.08031E-05  -2.94482E-03  -1.46814E-06  -3.97325E-07   2.78498E-04
 0.707   2.97265E-03                 0.00000E+00  -5.56557E-05  -5.25980E-04   8.41798E-03   3.23367E-05  -2.88343E-03  -2.05602E-06  -1.30450E-07   2.69404E-04
 0.717   2.83669E-03                 0.00000E+00  -5.83664E-05  -5.93948E-04   8.00779E-03   3.29523E-05  -2.80575E-03  -2.10770E-06  -5.12103E-08   2.59049E-04
 0.727   2.68866E-03                 0.00000E+00  -6.10431E-05  -6.64636E-04   7.56322E-03   3.46125E-05  -2.71111E-03  -1.92246E-06   6.47974E-08   2.47072E-04
 0.737   2.52899E-03                 0.00000E+00  -6.19926E-05  -7.38737E-04   7.08556E-03   3.59810E-05  -2.59825E-03  -2.68713E-06   2.72285E-07   2.34544E-04
 0.747   2.35797E-03                 0.00000E+00  -6.29310E-05  -8.14227E-04   6.57563E-03   3.70814E-05  -2.46668E-03  -2.05806E-06   2.05671E-07   2.20312E-04
 0.758   2.17682E-03                 0.00000E+00  -6.23798E-05  -8.92129E-04   6.03639E-03   3.87641E-05  -2.31635E-03  -2.79265E-06   4.35358E-07   2.05757E-04
 0.768   1.98651E-03                 0.00000E+00  -6.11328E-05  -9.69866E-04   5.47064E-03   4.00529E-05  -2.14611E-03  -2.48472E-06   3.17670E-07   1.90213E-04
 0.778   1.78940E-03                 0.00000E+00  -5.78328E-05  -1.04984E-03   4.88282E-03   4.10751E-05  -1.95909E-03  -2.77606E-06   4.76098E-07   1.74676E-04
 0.788   1.58775E-03                 0.00000E+00  -5.46425E-05  -1.13236E-03   4.27782E-03   4.18526E-05  -1.75397E-03  -2.95810E-06   2.78875E-07   1.59162E-04
 0.798   1.38504E-03                 0.00000E+00  -4.91436E-05  -1.21497E-03   3.66205E-03   4.35154E-05  -1.53395E-03  -2.80673E-06   4.02169E-07   1.44117E-04
 0.808   1.18595E-03                 0.00000E+00  -4.29375E-05  -1.28158E-03   3.04985E-03   4.74201E-05  -1.30137E-03  -2.28692E-06   4.44586E-07   1.29188E-04
 0.818   9.93048E-04                 0.00000E+00  -3.40765E-05  -1.26683E-03   2.47422E-03   5.90005E-05  -1.06373E-03   1.15444E-06   1.56376E-06   1.11800E-04
 0.828   8.12302E-04                 0.00000E+00  -1.82315E-05  -1.07939E-03   2.00628E-03   6.79146E-05  -8.57421E-04   5.77630E-06   3.65028E-06   9.00704E-05
 0.838   6.61297E-04                 0.00000E+00  -6.99495E-06  -6.66870E-04   1.72052E-03   6.75776E-05  -7.22803E-04   1.20224E-05   5.42533E-06   6.07715E-05
 0.848   5.79459E-04                 0.00000E+00  -7.73916E-06  -8.92781E-05   1.60092E-03   5.27992E-05  -6.68651E-04   1.36269E-05   6.20940E-06   2.93684E-05
 0.859   5.32999E-04                 0.00000E+00  -2.00584E-05   3.19400E-04   1.43761E-03   2.11362E-05  -6.22186E-04   3.58282E-06   2.00094E-06   8.94893E-06
 0.869   3.92744E-04                 0.00000E+00  -2.28341E-05   3.03225E-04   1.03689E-03   3.52258E-06  -4.69613E-04  -5.25028E-06  -2.03677E-06   5.78648E-06
 0.879   2.20171E-04                 0.00000E+00  -1.32793E-05   1.18788E-04   5.90817E-04   4.42778E-06  -2.69948E-04  -3.25391E-06  -1.36543E-06   4.89988E-06
 0.889   1.20241E-04                 0.00000E+00  -6.61984E-06   3.51937E-05   3.27160E-04   4.62288E-06  -1.47558E-04  -7.48838E-07  -2.22264E-07   2.95829E-06
 0.899   6.91127E-05                 0.00000E+00  -3.37080E-06   1.66743E-05   1.88364E-04   2.90216E-06  -8.49012E-05  -3.61713E-07  -1.60246E-07   1.43132E-06
 0.909   3.69280E-05                 0.00000E+00  -1.92964E-06   6.78855E-06   1.00817E-04   1.77332E-06  -4.53382E-05  -1.63341E-07  -6.66075E-08   6.92524E-07
 0.919   1.79341E-05                 0.00000E+00  -9.32509E-07   2.83399E-06   4.90106E-05   9.63714E-07  -2.19709E-05  -8.35256E-08  -3.89481E-08   2.74417E-07
 0.929   7.62744E-06                 0.00000E+00  -4.07997E-07   9.41908E-07   2.08727E-05   4.38430E-07  -9.31009E-06  -3.22137E-08  -1.56593E-08   8.73050E-08
 0.939   2.78298E-06                 0.00000E+00  -1.43018E-07   3.00388E-07   7.62706E-06   1.77875E-07  -3.37493E-06  -1.19799E-08  -6.88732E-09   1.77624E-08
 0.949   8.14722E-07                 0.00000E+00  -4.40124E-08   5.99653E-08   2.23559E-06   5.04843E-08  -9.83866E-07  -3.37891E-09  -1.82915E-09   1.22570E-09
 0.960   1.83079E-07                 0.00000E+00  -7.64765E-09   1.39102E-08   5.04049E-07   1.34890E-08  -2.17162E-07  -5.64805E-10  -5.42875E-10  -1.66460E-09
 0.970   2.77640E-08                 0.00000E+00  -1.31318E-09   7.58659E-10   7.64340E-08   1.41891E-09  -3.30292E-08  -9.47902E-11  -5.63040E-11  -4.25254E-10
 0.980   2.44241E-09                 0.00000E+00  -9.73629E-11   9.08194E-12   6.73311E-09   8.05132E-11  -2.88664E-09  -7.64325E-12  -3.74044E-12  -6.73369E-11
 0.990   9.86877E-11                 0.00000E+00  -2.42359E-11  -5.29392E-11   2.41771E-10  -4.50716E-11  -1.54062E-10  -2.76825E-12   1.82838E-12   5.68234E-12
 1.000   6.16159E-13                 0.00000E+00   3.69095E-17   5.81442E-15   1.70846E-12  -7.23336E-15  -7.04516E-13  -3.56998E-29   4.52635E-16  -4.00515E-14

 B^s_sinmn; fsq_total:  7.5044E-23
                       MPOL--->             0             1             2             0             1             2             0             1             2
RADIUS        RMS      NTOR--->            -1            -1            -1             0             0             0             1             1             1
 0.010   6.86305E-04                 0.00000E+00   1.70169E-03  -2.87464E-04   0.00000E+00   4.92445E-04  -1.33224E-04   1.00617E-06   9.99435E-04   4.03945E-05
 0.020   7.52756E-04                 0.00000E+00   1.97803E-03  -2.88274E-04   0.00000E+00   4.26967E-04  -6.58684E-05   4.22406E-06   9.56747E-04   4.54281E-05
 0.030   7.97623E-04                 0.00000E+00   2.14394E-03  -3.48638E-04   0.00000E+00   3.80716E-04  -6.92747E-05   8.23528E-06   9.24230E-04   6.16649E-05
 0.040   8.22192E-04                 0.00000E+00   2.21527E-03  -4.53008E-04   0.00000E+00   3.60004E-04  -9.40104E-05   1.22107E-05   9.09002E-04   8.05918E-05
 0.051   8.40399E-04                 0.00000E+00   2.25460E-03  -5.63734E-04   0.00000E+00   3.49483E-04  -1.16951E-04   1.61612E-05   8.99658E-04   9.97308E-05
 0.061   8.56498E-04                 0.00000E+00   2.28006E-03  -6.75641E-04   0.00000E+00   3.41821E-04  -1.41107E-04   2.01150E-05   8.92068E-04   1.19127E-04
 0.071   8.72366E-04                 0.00000E+00   2.29842E-03  -7.89267E-04   0.00000E+00   3.36068E-04  -1.64930E-04   2.40791E-05   8.85229E-04   1.38529E-04
 0.081   8.88626E-04                 0.00000E+00   2.31263E-03  -9.03105E-04   0.00000E+00   3.31201E-04  -1.88991E-04   2.80577E-05   8.78568E-04   1.58041E-04
 0.091   9.05837E-04                 0.00000E+00   2.32461E-03  -1.01792E-03   0.00000E+00   3.26868E-04  -2.12835E-04   3.20575E-05   8.71889E-04   1.77554E-04
 0.101   9.24099E-04                 0.00000E+00   2.33513E-03  -1.13312E-03   0.00000E+00   3.23015E-04  -2.36659E-04   3.60775E-05   8.65065E-04   1.97119E-04
 0.111   9.43564E-04                 0.00000E+00   2.34495E-03  -1.24882E-03   0.00000E+00   3.19355E-04  -2.60264E-04   4.01245E-05   8.58018E-04   2.16688E-04
 0.121   9.64230E-04                 0.00000E+00   2.35436E-03  -1.36493E-03   0.00000E+00   3.15843E-04  -2.83740E-04   4.41969E-05   8.50624E-04   2.36249E-04
 0.131   9.86069E-04                 0.00000E+00   2.36364E-03  -1.48130E-03   0.00000E+00   3.12297E-04  -3.06974E-04   4.82953E-05   8.42854E-04   2.55772E-04
 0.141   1.00905E-03                 0.00000E+00   2.37296E-03  -1.59781E-03   0.00000E+00   3.08804E-04  -3.30002E-04   5.24175E-05   8.34776E-04   2.75205E-04
 0.152   1.03312E-03                 0.00000E+00   2.38240E-03  -1.71435E-03   0.00000E+00   3.05618E-04  -3.52786E-04   5.65632E-05   8.26683E-04   2.94511E-04
 0.162   1.05828E-03                 0.00000E+00   2.39202E-03  -1.83102E-03   0.00000E+00   3.03061E-04  -3.75414E-04   6.07357E-05   8.18811E-04   3.13632E-04
 0.172   1.08450E-03                 0.00000E+00   2.40185E-03  -1.94798E-03   0.00000E+00   3.01135E-04  -3.97940E-04   6.49389E-05   8.11160E-04   3.32548E-04
 0.182   1.11166E-03                 0.00000E+00   2.41192E-03  -2.06513E-03   0.00000E+00   2.99461E-04  -4.20327E-04   6.91589E-05   8.03420E-04   3.51247E-04
 0.192   1.13965E-03                 0.00000E+00   2.42234E-03  -2.18222E-03   0.00000E+00   2.97836E-04  -4.42536E-04   7.33970E-05   7.95400E-04   3.69758E-04
 0.202   1.16838E-03                 0.00000E+00   2.43313E-03  -2.29912E-03   0.00000E+00   2.96395E-04  -4.64549E-04   7.76572E-05   7.87192E-04   3.88094E-04
