
 p_cosmn; fsq_total:  2.0033E-25
                       MPOL--->             0             1             2             0             1             2             0             1             2
RADIUS        RMS      NTOR--->            -1            -1            -1             0             0             0             1             1             1
 0.010   3.87321E-03                 0.00000E+00   1.19288E-06  -1.67996E-07   1.16195E-02   2.26353E-05  -5.29066E-05   9.05785E-08  -1.45373E-06   8.17059E-06
 0.020   3.87207E-03                 0.00000E+00  -5.28481E-08   9.90542E-07   1.16158E-02   2.11193E-05  -9.70014E-05  -1.36882E-07  -2.90932E-06   1.23466E-05
 0.030   3.87264E-03                 0.00000E+00   8.76955E-07  -2.80605E-07   1.16170E-02   2.21696E-05  -1.40941E-04   3.03110E-07  -3.23658E-06   1.76288E-05
 0.040   3.87250E-03                 0.00000E+00  -1.27517E-07   9.84228E-07   1.16160E-02   2.16983E-05  -1.84654E-04  -4.98078E-07  -2.85283E-06   2.29853E-05
 0.051   3.87287E-03                 0.00000E+00   1.13077E-06   5.35619E-07   1.16163E-02   2.17897E-05  -2.29641E-04   7.09692E-07  -3.38319E-06   2.84056E-05
 0.061   3.87316E-03                 0.00000E+00  -2.61879E-07   9.21902E-07   1.16162E-02   2.19614E-05  -2.74315E-04  -9.12340E-07  -2.83575E-06   3.39724E-05
 0.071   3.87351E-03                 0.00000E+00   1.19271E-06   1.18122E-06   1.16160E-02   2.17630E-05  -3.19551E-04   1.04762E-06  -3.36751E-06   3.95200E-05
 0.081   3.87398E-03                 0.00000E+00  -1.25516E-07   1.26575E-06   1.16161E-02   2.18701E-05  -3.65980E-04  -1.03855E-06  -2.93252E-06   4.52142E-05
 0.091   3.87450E-03                 0.00000E+00   7.61872E-07   1.89812E-06   1.16161E-02   2.19362E-05  -4.10539E-04   7.91264E-07  -3.22080E-06   5.09038E-05
 0.101   3.87508E-03                 0.00000E+00   6.56455E-07   1.63981E-06   1.16160E-02   2.16954E-05  -4.59112E-04  -2.45423E-07  -3.17462E-06   5.67236E-05
 0.111   3.87577E-03                 0.00000E+00  -2.24674E-07   3.10354E-06   1.16162E-02   2.17760E-05  -5.02979E-04  -5.57975E-07  -3.01931E-06   6.26294E-05
 0.121   3.87652E-03                 0.00000E+00   1.38984E-06   2.23119E-06   1.16162E-02   2.17095E-05  -5.52005E-04   1.40958E-06  -3.46255E-06   6.85930E-05
 0.131   3.87727E-03                 0.00000E+00  -4.53416E-07   3.93857E-06   1.16162E-02   2.15566E-05  -5.97930E-04  -1.94648E-06  -2.89431E-06   7.47181E-05
 0.141   3.87816E-03                 0.00000E+00   9.31590E-07   3.88960E-06   1.16163E-02   2.19907E-05  -6.44854E-04   1.76057E-06  -3.32063E-06   8.05640E-05
 0.152   3.87909E-03                 0.00000E+00   5.90206E-07   3.61965E-06   1.16161E-02   2.23187E-05  -6.96384E-04  -6.79183E-07  -2.94880E-06   8.64498E-05
 0.162   3.88010E-03                 0.00000E+00   4.85481E-09   5.88665E-06   1.16162E-02   2.22968E-05  -7.42035E-04  -9.53702E-07  -2.83378E-06   9.22352E-05
 0.172   3.88127E-03                 0.00000E+00   1.47067E-06   4.00688E-06   1.16163E-02   2.20750E-05  -7.94128E-04   2.27328E-06  -3.32131E-06   9.79784E-05
 0.182   3.88238E-03                 0.00000E+00  -3.26941E-07   5.83841E-06   1.16161E-02   2.19057E-05  -8.43518E-04  -2.31639E-06  -2.90696E-06   1.04239E-04
 0.192   3.88361E-03                 0.00000E+00   3.76689E-07   7.08372E-06   1.16162E-02   2.21107E-05  -8.89988E-04   7.42296E-07  -3.12463E-06   1.10160E-04
 0.202   3.88499E-03                 0.00000E+00   1.45868E-06   5.18693E-06   1.16160E-02   2.23785E-05  -9.44584E-04   1.56911E-06  -3.22441E-06   1.16118E-04
 0.212   3.88632E-03                 0.00000E+00  -3.85121E-07   8.47462E-06   1.16159E-02   2.22065E-05  -9.93414E-04  -2.80747E-06  -2.75278E-06   1.22288E-04
 0.222   3.88783E-03                 0.00000E+00   6.72025E-07   8.34499E-06   1.16161E-02   2.22282E-05  -1.04247E-03   1.64875E-06  -3.21097E-06   1.28065E-04
 0.232   3.88945E-03                 0.00000E+00   1.20710E-06   6.88310E-06   1.16158E-02   2.24102E-05  -1.09827E-03   1.16523E-06  -3.18355E-06   1.34157E-04
 0.242   3.89099E-03                 0.00000E+00  -4.07136E-07   1.05467E-05   1.16156E-02   2.22493E-05  -1.14719E-03  -2.98268E-06  -2.83189E-06   1.40479E-04
 0.253   3.89269E-03                 0.00000E+00   7.17033E-07   1.01386E-05   1.16156E-02   2.22745E-05  -1.19727E-03   1.69134E-06  -3.18985E-06   1.46232E-04
 0.263   3.89457E-03                 0.00000E+00   1.28463E-06   8.77370E-06   1.16152E-02   2.24976E-05  -1.25414E-03   1.57432E-06  -3.22951E-06   1.52321E-04
 0.273   3.89635E-03                 0.00000E+00  -4.20366E-07   1.26866E-05   1.16149E-02   2.23369E-05  -1.30462E-03  -3.07615E-06  -2.83072E-06   1.58706E-04
 0.283   3.89823E-03                 0.00000E+00   3.63337E-07   1.26285E-05   1.16148E-02   2.22635E-05  -1.35434E-03   7.41068E-07  -3.17559E-06   1.64515E-04
 0.293   3.90031E-03                 0.00000E+00   1.54318E-06   1.04804E-05   1.16142E-02   2.24729E-05  -1.41159E-03   2.61793E-06  -3.26951E-06   1.70451E-04
 0.303   3.90234E-03                 0.00000E+00  -5.86862E-08   1.40224E-05   1.16136E-02   2.23504E-05  -1.46501E-03  -2.43262E-06  -2.92053E-06   1.76881E-04
 0.313   3.90432E-03                 0.00000E+00  -3.77155E-07   1.54845E-05   1.16132E-02   2.21506E-05  -1.51408E-03  -1.26242E-06  -3.02046E-06   1.82814E-04
 0.323   3.90649E-03                 0.00000E+00   1.25642E-06   1.24454E-05   1.16123E-02   2.23680E-05  -1.56974E-03   3.06548E-06  -3.35178E-06   1.88490E-04
 0.333   3.90871E-03                 0.00000E+00   6.86130E-07   1.39782E-05   1.16111E-02   2.24584E-05  -1.62669E-03  -1.19211E-07  -3.02720E-06   1.94743E-04
 0.343   3.91078E-03                 0.00000E+00  -6.99802E-07   1.71156E-05   1.16101E-02   2.21164E-05  -1.67722E-03  -3.02500E-06  -2.91237E-06   2.00936E-04
 0.354   3.91284E-03                 0.00000E+00   3.89467E-07   1.43664E-05   1.16086E-02   2.19133E-05  -1.72932E-03   1.05682E-06  -3.21928E-06   2.06508E-04
 0.364   3.91502E-03                 0.00000E+00   1.20426E-06   1.22418E-05   1.16063E-02   2.20293E-05  -1.78724E-03   2.65833E-06  -3.26814E-06   2.12224E-04
 0.374   3.91711E-03                 0.00000E+00  -3.40901E-07   1.49192E-05   1.16039E-02   2.19686E-05  -1.84242E-03  -1.62903E-06  -2.88100E-06   2.18432E-04
 0.384   3.91890E-03                 0.00000E+00  -1.08887E-06   1.44572E-05   1.16011E-02   2.16347E-05  -1.89295E-03  -2.41262E-06  -2.98812E-06   2.24287E-04
 0.394   3.92053E-03                 0.00000E+00   3.63857E-07   8.69788E-06   1.15970E-02   2.13695E-05  -1.94684E-03   1.72028E-06  -3.26459E-06   2.29645E-04
 0.404   3.92212E-03                 0.00000E+00   6.06267E-07   5.95745E-06   1.15919E-02   2.12108E-05  -2.00477E-03   2.17719E-06  -3.15190E-06   2.35233E-04
 0.414   3.92344E-03                 0.00000E+00  -1.11416E-06   6.11728E-06   1.15862E-02   2.08509E-05  -2.05954E-03  -1.74763E-06  -2.78913E-06   2.41216E-04
 0.424   3.92420E-03                 0.00000E+00  -1.66684E-06   8.86844E-07   1.15792E-02   2.01557E-05  -2.11057E-03  -2.36463E-06  -2.96806E-06   2.46830E-04
 0.434   3.92447E-03                 0.00000E+00  -4.54698E-07  -9.26794E-06   1.15700E-02   1.93521E-05  -2.16415E-03   1.20882E-06  -3.21878E-06   2.51948E-04
 0.444   3.92439E-03                 0.00000E+00  -5.92007E-07  -1.66463E-05   1.15588E-02   1.87162E-05  -2.22118E-03   2.27326E-06  -3.07217E-06   2.57142E-04
 0.455   3.92370E-03                 0.00000E+00  -2.60053E-06  -2.25197E-05   1.15459E-02   1.81365E-05  -2.27618E-03  -9.05807E-07  -2.67222E-06   2.62751E-04
 0.465   3.92197E-03                 0.00000E+00  -3.44902E-06  -3.54559E-05   1.15303E-02   1.70689E-05  -2.32724E-03  -2.74507E-06  -2.79214E-06   2.68228E-04
 0.475   3.91903E-03                 0.00000E+00  -2.36439E-06  -5.57175E-05   1.15106E-02   1.52181E-05  -2.37861E-03  -3.93089E-07  -3.06927E-06   2.73216E-04
 0.485   3.91504E-03                 0.00000E+00  -2.24274E-06  -7.58286E-05   1.14868E-02   1.30159E-05  -2.43299E-03   2.06303E-06  -3.00144E-06   2.77938E-04
 0.495   3.90988E-03                 0.00000E+00  -4.61641E-06  -9.47969E-05   1.14590E-02   1.09855E-05  -2.48738E-03   7.30237E-07  -2.51533E-06   2.82952E-04
 0.505   3.90303E-03                 0.00000E+00  -6.95047E-06  -1.20819E-04   1.14264E-02   8.77776E-06  -2.53808E-03  -2.28400E-06  -2.43438E-06   2.88129E-04
 0.515   3.89399E-03                 0.00000E+00  -7.21679E-06  -1.57918E-04   1.13873E-02   5.55745E-06  -2.58590E-03  -2.59610E-06  -2.71593E-06   2.93034E-04
 0.525   3.88266E-03                 0.00000E+00  -7.13552E-06  -2.00641E-04   1.13405E-02   1.32263E-06  -2.63425E-03   1.05991E-08  -2.87916E-06   2.97336E-04
 0.535   3.86904E-03                 0.00000E+00  -9.31641E-06  -2.44671E-04   1.12859E-02  -3.02870E-06  -2.68385E-03   1.65376E-06  -2.41784E-06   3.01508E-04
 0.545   3.85273E-03                 0.00000E+00  -1.28875E-05  -2.95490E-04   1.12227E-02  -7.24452E-06  -2.73178E-03  -9.63049E-08  -1.99676E-06   3.05958E-04
 0.556   3.83302E-03                 0.00000E+00  -1.49578E-05  -3.61355E-04   1.11489E-02  -1.25911E-05  -2.77524E-03  -3.12271E-06  -2.03098E-06   3.10751E-04
 0.566   3.80930E-03                 0.00000E+00  -1.53551E-05  -4.42276E-04   1.10625E-02  -2.03975E-05  -2.81484E-03  -3.63827E-06  -2.43999E-06   3.15146E-04
 0.576   3.78140E-03                 0.00000E+00  -1.71506E-05  -5.32119E-04   1.09619E-02  -3.01942E-05  -2.85321E-03  -1.12894E-06  -2.35046E-06   3.18871E-04
 0.586   3.74920E-03                 0.00000E+00  -2.24546E-05  -6.29432E-04   1.08466E-02  -4.02180E-05  -2.89114E-03   1.00686E-06  -1.81106E-06   3.22103E-04
 0.596   3.71226E-03                 0.00000E+00  -2.95728E-05  -7.40660E-04   1.07149E-02  -4.98054E-05  -2.92589E-03  -4.13394E-07  -1.32816E-06   3.25653E-04
 0.606   3.66981E-03                 0.00000E+00  -3.57720E-05  -8.71786E-04   1.05646E-02  -6.03281E-05  -2.95367E-03  -4.23211E-06  -1.59102E-06   3.29389E-04
 0.616   3.62122E-03                 0.00000E+00  -4.11527E-05  -1.02121E-03   1.03931E-02  -7.31574E-05  -2.97350E-03  -6.17662E-06  -2.01356E-06   3.32751E-04
 0.626   3.56633E-03                 0.00000E+00  -4.81689E-05  -1.18399E-03   1.01989E-02  -8.74695E-05  -2.98769E-03  -4.01601E-06  -1.99788E-06   3.34876E-04
 0.636   3.50528E-03                 0.00000E+00  -5.78237E-05  -1.36038E-03   9.98075E-03  -1.01132E-04  -2.99838E-03  -7.32895E-07  -1.28702E-06   3.36319E-04
 0.646   3.43813E-03                 0.00000E+00  -6.83274E-05  -1.55619E-03   9.73710E-03  -1.13707E-04  -3.00370E-03  -1.18779E-06  -8.84174E-07   3.37791E-04
 0.657   3.36452E-03                 0.00000E+00  -7.83485E-05  -1.77451E-03   9.46582E-03  -1.27257E-04  -2.99863E-03  -6.01949E-06  -1.21137E-06   3.39820E-04
 0.667   3.28402E-03                 0.00000E+00  -8.97969E-05  -2.01077E-03   9.16494E-03  -1.43192E-04  -2.97968E-03  -1.01289E-05  -2.01616E-06   3.41030E-04
 0.677   3.19665E-03                 0.00000E+00  -1.05787E-04  -2.25802E-03   8.83323E-03  -1.58971E-04  -2.94794E-03  -8.80526E-06  -2.13642E-06   3.40442E-04
 0.687   3.10315E-03                 0.00000E+00  -1.26474E-04  -2.51353E-03   8.47026E-03  -1.69348E-04  -2.90585E-03  -4.20651E-06  -1.62291E-06   3.37673E-04
 0.697   3.00405E-03                 0.00000E+00  -1.49384E-04  -2.77546E-03   8.07617E-03  -1.70934E-04  -2.85095E-03  -3.50570E-06  -1.26260E-06   3.34218E-04
 0.707   2.89866E-03                 0.00000E+00  -1.73102E-04  -3.03457E-03   7.65166E-03  -1.63752E-04  -2.77449E-03  -9.37558E-06  -1.98772E-06   3.30014E-04
 0.717   2.78548E-03                 0.00000E+00  -1.97150E-04  -3.27510E-03   7.19827E-03  -1.47472E-04  -2.66884E-03  -1.53247E-05  -2.86516E-06   3.24227E-04
 0.727   2.66426E-03                 0.00000E+00  -2.16176E-04  -3.48515E-03   6.71921E-03  -1.18783E-04  -2.53575E-03  -1.36606E-05  -2.62190E-06   3.15105E-04
 0.737   2.53690E-03                 0.00000E+00  -2.19969E-04  -3.65886E-03   6.22092E-03  -7.62076E-05  -2.38515E-03  -6.87916E-06  -1.05014E-06   3.04045E-04
 0.747   2.40473E-03                 0.00000E+00  -2.04270E-04  -3.78427E-03   5.71395E-03  -2.63694E-05  -2.22411E-03  -4.70728E-06   1.61755E-07   2.92398E-04
 0.758   2.26644E-03                 0.00000E+00  -1.78375E-04  -3.84136E-03   5.21083E-03   2.03907E-05  -2.05212E-03  -8.48784E-06   2.41624E-07   2.80516E-04
 0.768   2.12127E-03                 0.00000E+00  -1.51321E-04  -3.82119E-03   4.72226E-03   6.13903E-05  -1.87072E-03  -8.03917E-06   5.15893E-07   2.65719E-04
 0.778   1.97223E-03                 0.00000E+00  -1.17682E-04  -3.73162E-03   4.25800E-03   1.00354E-04  -1.69287E-03  -4.30321E-08   2.21426E-06   2.48623E-04
 0.788   1.82045E-03                 0.00000E+00  -7.40694E-05  -3.56841E-03   3.83070E-03   1.34485E-04  -1.53026E-03   4.71205E-06   3.99614E-06   2.30380E-04
 0.798   1.66504E-03                 0.00000E+00  -3.84993E-05  -3.32487E-03   3.45251E-03   1.58981E-04  -1.38038E-03   3.91968E-06   4.05832E-06   2.10553E-04
 0.808   1.51376E-03                 0.00000E+00  -1.13114E-05  -3.03629E-03   3.12853E-03   1.76701E-04  -1.24462E-03   5.99619E-06   3.99296E-06   1.89485E-04
 0.818   1.37761E-03                 0.00000E+00   3.42562E-05  -2.73216E-03   2.86892E-03   1.73908E-04  -1.15049E-03   7.95804E-06   5.29286E-06   1.72950E-04
 0.828   1.26703E-03                 0.00000E+00   6.53630E-05  -2.42841E-03   2.69308E-03   1.36867E-04  -1.11855E-03   8.79483E-06   5.00765E-06   1.55533E-04
 0.838   1.18684E-03                 0.00000E+00   4.29639E-05  -2.18306E-03   2.58353E-03   1.14758E-04  -1.09715E-03   6.42093E-06   1.34545E-06   1.34758E-04
 0.848   1.08317E-03                 0.00000E+00   2.91042E-05  -1.84380E-03   2.47828E-03   1.65996E-04  -9.87879E-04   1.00207E-05   4.39305E-06   1.15947E-04
 0.859   9.11133E-04                 0.00000E+00   6.10572E-05  -1.00863E-03   2.37667E-03   2.38522E-04  -8.58589E-04   3.74926E-05   1.44377E-05   7.83825E-05
 0.869   8.17016E-04                 0.00000E+00   3.21615E-05   3.38527E-04   2.26885E-03   1.90778E-04  -8.40185E-04   3.87248E-05   1.67638E-05   1.50394E-05
 0.879   8.20757E-04                 0.00000E+00  -4.35715E-05   1.21518E-03   1.96990E-03   2.99153E-05  -8.37738E-04   1.42185E-06   3.32989E-06  -3.16894E-05
 0.889   6.13599E-04                 0.00000E+00  -5.50977E-05   1.04963E-03   1.35997E-03  -5.81537E-05  -6.55351E-04  -1.48727E-05  -6.33678E-06  -3.34576E-05
 0.899   3.12258E-04                 0.00000E+00  -3.32265E-05   5.23013E-04   6.89711E-04  -4.29462E-05  -3.53445E-04  -1.03417E-05  -5.15763E-06  -1.72461E-05
 0.909   1.13630E-04                 0.00000E+00  -1.40179E-05   1.74352E-04   2.58625E-04  -1.67933E-05  -1.35568E-04  -4.82462E-06  -2.38387E-06  -5.81385E-06
 0.919   3.22805E-05                 0.00000E+00  -3.41956E-06   3.79394E-05   7.96195E-05  -3.06797E-06  -3.96937E-05  -8.56504E-07  -5.00573E-07  -1.38314E-06
 0.929   1.00090E-05                 0.00000E+00  -1.13907E-06   8.96957E-06   2.60837E-05   2.78355E-07  -1.18003E-05  -2.56279E-07  -1.17521E-07  -3.21928E-07
 0.939   3.30722E-06                 0.00000E+00  -2.93828E-07   2.40692E-06   8.76881E-06   6.46096E-08  -3.95581E-06  -5.41637E-08  -2.57070E-08  -1.06294E-07
 0.949   1.00012E-06                 0.00000E+00  -7.52211E-08   7.11025E-07   2.63741E-06  -3.39664E-08  -1.23777E-06  -1.52681E-08  -7.98372E-09  -3.80042E-08
 0.960   2.06989E-07                 0.00000E+00  -9.96856E-09   1.23273E-07   5.49768E-07  -1.30652E-08  -2.60391E-07  -1.59223E-09  -1.09964E-09  -8.99046E-09
 0.970   3.25256E-08                 0.00000E+00  -1.86178E-09   1.51972E-08   8.79281E-08  -1.82298E-10  -3.94100E-08  -2.73029E-10  -1.74840E-10  -1.47335E-09
 0.980   2.51616E-09                 0.00000E+00  -9.58203E-11   8.12978E-10   6.87860E-09   4.33054E-12  -2.99629E-09  -1.06378E-11  -7.73311E-12  -1.28221E-10
 0.990   1.02761E-10                 0.00000E+00   8.00383E-12   4.37556E-11   2.71894E-10  -2.19969E-11  -1.36383E-10   1.29275E-12   1.01778E-12  -6.87585E-12
 1.000   9.09590E-13                 0.00000E+00   5.44867E-17   8.58340E-15   2.52207E-12  -1.06781E-14  -1.04003E-12   0.00000E+00   6.68192E-16  -5.91251E-14

 B^s_sinmn; fsq_total:  2.0033E-25
                       MPOL--->             0             1             2             0             1             2             0             1             2
RADIUS        RMS      NTOR--->            -1            -1            -1             0             0             0             1             1             1
 0.010   9.44685E-04                 0.00000E+00   1.06802E-03  -7.95396E-04   0.00000E+00  -6.70739E-04   9.05084E-04  -2.48063E-06   2.14819E-03   6.12169E-04
 0.020   7.35861E-04                 0.00000E+00   1.36084E-03  -1.10509E-03   0.00000E+00  -3.36829E-04   9.11762E-05  -7.54988E-07   1.29417E-03   6.07451E-05
 0.030   8.03290E-04                 0.00000E+00   1.49656E-03  -1.56309E-03   0.00000E+00  -2.17173E-04  -7.26998E-05   1.75412E-06   1.03507E-03   2.68617E-05
 0.040   9.32785E-04                 0.00000E+00   1.58160E-03  -2.07564E-03   0.00000E+00  -2.00916E-04  -5.96467E-05   3.81440E-06   9.85852E-04   7.20653E-05
 0.051   1.07553E-03                 0.00000E+00   1.63190E-03  -2.60532E-03   0.00000E+00  -1.94241E-04  -7.57570E-05   5.85120E-06   9.53514E-04   8.63923E-05
 0.061   1.22777E-03                 0.00000E+00   1.67528E-03  -3.13464E-03   0.00000E+00  -1.90347E-04  -8.49537E-05   7.89713E-06   9.37750E-04   1.06274E-04
 0.071   1.38556E-03                 0.00000E+00   1.71710E-03  -3.66245E-03   0.00000E+00  -1.92303E-04  -9.84289E-05   1.00599E-05   9.24424E-04   1.21591E-04
 0.081   1.54949E-03                 0.00000E+00   1.75505E-03  -4.19800E-03   0.00000E+00  -1.93178E-04  -1.08506E-04   1.22348E-05   9.14800E-04   1.37492E-04
 0.091   1.71903E-03                 0.00000E+00   1.79983E-03  -4.73917E-03   0.00000E+00  -1.94678E-04  -1.23079E-04   1.46505E-05   9.05669E-04   1.51986E-04
 0.101   1.88855E-03                 0.00000E+00   1.84244E-03  -5.27390E-03   0.00000E+00  -1.98572E-04  -1.32070E-04   1.70898E-05   8.97828E-04   1.66240E-04
 0.111   2.06467E-03                 0.00000E+00   1.89083E-03  -5.82281E-03   0.00000E+00  -1.99803E-04  -1.46340E-04   1.97667E-05   8.89638E-04   1.79402E-04
 0.121   2.24089E-03                 0.00000E+00   1.94228E-03  -6.36712E-03   0.00000E+00  -2.03419E-04  -1.56336E-04   2.26003E-05   8.82266E-04   1.92406E-04
 0.131   2.41821E-03                 0.00000E+00   1.99616E-03  -6.91143E-03   0.00000E+00  -2.06758E-04  -1.67012E-04   2.56091E-05   8.74044E-04   2.04292E-04
 0.141   2.60037E-03                 0.00000E+00   2.05533E-03  -7.46719E-03   0.00000E+00  -2.09452E-04  -1.80076E-04   2.88529E-05   8.66262E-04   2.15731E-04
 0.152   2.78033E-03                 0.00000E+00   2.11740E-03  -8.01367E-03   0.00000E+00  -2.13190E-04  -1.87476E-04   3.22995E-05   8.58512E-04   2.26220E-04
 0.162   2.96420E-03                 0.00000E+00   2.18428E-03  -8.56968E-03   0.00000E+00  -2.15386E-04  -2.01007E-04   3.60033E-05   8.50871E-04   2.35826E-04
 0.172   3.14916E-03                 0.00000E+00   2.25486E-03  -9.12715E-03   0.00000E+00  -2.17578E-04  -2.10575E-04   3.99418E-05   8.44032E-04   2.44689E-04
 0.182   3.33309E-03                 0.00000E+00   2.32893E-03  -9.67983E-03   0.00000E+00  -2.19733E-04  -2.19317E-04   4.41377E-05   8.36867E-04   2.52703E-04
 0.192   3.52123E-03                 0.00000E+00   2.40814E-03  -1.02436E-02   0.00000E+00  -2.21069E-04  -2.32910E-04   4.86432E-05   8.29537E-04   2.59788E-04
 0.202   3.70767E-03                 0.00000E+00   2.49068E-03  -1.08009E-02   0.00000E+00  -2.23357E-04  -2.40116E-04   5.34120E-05   8.22432E-04   2.66187E-04
