
 p_cosmn; fsq_total:  2.4052E-25
                       MPOL--->             0             1             2             0             1             2             0             1             2
RADIUS        RMS      NTOR--->            -1            -1            -1             0             0             0             1             1             1
 0.010   3.87321E-03                 0.00000E+00   1.19254E-06  -1.67962E-07   1.16195E-02   2.26351E-05  -5.29070E-05   9.08227E-08  -1.45391E-06   8.17052E-06
 0.020   3.87207E-03                 0.00000E+00  -5.26599E-08   9.90458E-07   1.16158E-02   2.11194E-05  -9.70012E-05  -1.36967E-07  -2.90931E-06   1.23467E-05
 0.030   3.87264E-03                 0.00000E+00   8.76811E-07  -2.80599E-07   1.16170E-02   2.21695E-05  -1.40941E-04   3.03151E-07  -3.23656E-06   1.76288E-05
 0.040   3.87250E-03                 0.00000E+00  -1.27364E-07   9.84313E-07   1.16160E-02   2.16983E-05  -1.84653E-04  -4.98120E-07  -2.85285E-06   2.29853E-05
 0.051   3.87287E-03                 0.00000E+00   1.13063E-06   5.35506E-07   1.16163E-02   2.17897E-05  -2.29641E-04   7.09731E-07  -3.38317E-06   2.84056E-05
 0.061   3.87316E-03                 0.00000E+00  -2.61772E-07   9.21991E-07   1.16162E-02   2.19614E-05  -2.74315E-04  -9.12368E-07  -2.83577E-06   3.39724E-05
 0.071   3.87351E-03                 0.00000E+00   1.19262E-06   1.18116E-06   1.16160E-02   2.17630E-05  -3.19551E-04   1.04762E-06  -3.36749E-06   3.95200E-05
 0.081   3.87398E-03                 0.00000E+00  -1.25438E-07   1.26577E-06   1.16161E-02   2.18701E-05  -3.65980E-04  -1.03851E-06  -2.93254E-06   4.52142E-05
 0.091   3.87450E-03                 0.00000E+00   7.61776E-07   1.89811E-06   1.16161E-02   2.19362E-05  -4.10539E-04   7.91178E-07  -3.22077E-06   5.09038E-05
 0.101   3.87508E-03                 0.00000E+00   6.56583E-07   1.63983E-06   1.16160E-02   2.16954E-05  -4.59112E-04  -2.45291E-07  -3.17466E-06   5.67235E-05
 0.111   3.87577E-03                 0.00000E+00  -2.24809E-07   3.10354E-06   1.16162E-02   2.17760E-05  -5.02979E-04  -5.58135E-07  -3.01928E-06   6.26294E-05
 0.121   3.87652E-03                 0.00000E+00   1.38995E-06   2.23126E-06   1.16162E-02   2.17096E-05  -5.52005E-04   1.40973E-06  -3.46258E-06   6.85930E-05
 0.131   3.87727E-03                 0.00000E+00  -4.53432E-07   3.93842E-06   1.16162E-02   2.15565E-05  -5.97930E-04  -1.94656E-06  -2.89430E-06   7.47181E-05
 0.141   3.87816E-03                 0.00000E+00   9.31490E-07   3.88972E-06   1.16163E-02   2.19907E-05  -6.44854E-04   1.76053E-06  -3.32062E-06   8.05640E-05
 0.152   3.87909E-03                 0.00000E+00   5.90292E-07   3.61953E-06   1.16161E-02   2.23187E-05  -6.96384E-04  -6.79024E-07  -2.94882E-06   8.64498E-05
 0.162   3.88010E-03                 0.00000E+00   4.85332E-09   5.88680E-06   1.16162E-02   2.22968E-05  -7.42035E-04  -9.53918E-07  -2.83376E-06   9.22352E-05
 0.172   3.88127E-03                 0.00000E+00   1.47069E-06   4.00691E-06   1.16163E-02   2.20749E-05  -7.94128E-04   2.27343E-06  -3.32132E-06   9.79784E-05
 0.182   3.88238E-03                 0.00000E+00  -3.26951E-07   5.83823E-06   1.16161E-02   2.19057E-05  -8.43518E-04  -2.31637E-06  -2.90697E-06   1.04239E-04
 0.192   3.88361E-03                 0.00000E+00   3.76564E-07   7.08384E-06   1.16162E-02   2.21107E-05  -8.89988E-04   7.42103E-07  -3.12460E-06   1.10160E-04
 0.202   3.88499E-03                 0.00000E+00   1.45882E-06   5.18688E-06   1.16160E-02   2.23785E-05  -9.44584E-04   1.56935E-06  -3.22444E-06   1.16118E-04
 0.212   3.88632E-03                 0.00000E+00  -3.85078E-07   8.47451E-06   1.16159E-02   2.22064E-05  -9.93414E-04  -2.80758E-06  -2.75277E-06   1.22288E-04
 0.222   3.88783E-03                 0.00000E+00   6.71881E-07   8.34529E-06   1.16161E-02   2.22282E-05  -1.04247E-03   1.64862E-06  -3.21096E-06   1.28065E-04
 0.232   3.88945E-03                 0.00000E+00   1.20718E-06   6.88287E-06   1.16158E-02   2.24103E-05  -1.09827E-03   1.16549E-06  -3.18357E-06   1.34157E-04
 0.242   3.89099E-03                 0.00000E+00  -4.07138E-07   1.05467E-05   1.16156E-02   2.22493E-05  -1.14719E-03  -2.98280E-06  -2.83189E-06   1.40479E-04
 0.253   3.89269E-03                 0.00000E+00   7.16983E-07   1.01387E-05   1.16156E-02   2.22745E-05  -1.19727E-03   1.69119E-06  -3.18983E-06   1.46232E-04
 0.263   3.89457E-03                 0.00000E+00   1.28472E-06   8.77358E-06   1.16152E-02   2.24976E-05  -1.25414E-03   1.57458E-06  -3.22953E-06   1.52321E-04
 0.273   3.89635E-03                 0.00000E+00  -4.20394E-07   1.26866E-05   1.16149E-02   2.23369E-05  -1.30463E-03  -3.07622E-06  -2.83071E-06   1.58706E-04
 0.283   3.89823E-03                 0.00000E+00   3.63263E-07   1.26286E-05   1.16148E-02   2.22635E-05  -1.35434E-03   7.40866E-07  -3.17558E-06   1.64515E-04
 0.293   3.90031E-03                 0.00000E+00   1.54322E-06   1.04804E-05   1.16142E-02   2.24729E-05  -1.41159E-03   2.61815E-06  -3.26953E-06   1.70451E-04
 0.303   3.90234E-03                 0.00000E+00  -5.86018E-08   1.40222E-05   1.16136E-02   2.23504E-05  -1.46501E-03  -2.43255E-06  -2.92054E-06   1.76881E-04
 0.313   3.90432E-03                 0.00000E+00  -3.77266E-07   1.54848E-05   1.16132E-02   2.21505E-05  -1.51408E-03  -1.26267E-06  -3.02043E-06   1.82814E-04
 0.323   3.90649E-03                 0.00000E+00   1.25643E-06   1.24454E-05   1.16123E-02   2.23680E-05  -1.56974E-03   3.06554E-06  -3.35179E-06   1.88490E-04
 0.333   3.90871E-03                 0.00000E+00   6.86185E-07   1.39781E-05   1.16111E-02   2.24584E-05  -1.62669E-03  -1.18997E-07  -3.02722E-06   1.94743E-04
 0.343   3.91078E-03                 0.00000E+00  -6.99793E-07   1.71156E-05   1.16101E-02   2.21164E-05  -1.67722E-03  -3.02514E-06  -2.91236E-06   2.00936E-04
 0.354   3.91284E-03                 0.00000E+00   3.89330E-07   1.43667E-05   1.16086E-02   2.19133E-05  -1.72932E-03   1.05667E-06  -3.21927E-06   2.06508E-04
 0.364   3.91502E-03                 0.00000E+00   1.20438E-06   1.22415E-05   1.16063E-02   2.20293E-05  -1.78724E-03   2.65850E-06  -3.26816E-06   2.12224E-04
 0.374   3.91711E-03                 0.00000E+00  -3.40882E-07   1.49192E-05   1.16039E-02   2.19686E-05  -1.84242E-03  -1.62891E-06  -2.88100E-06   2.18432E-04
 0.384   3.91890E-03                 0.00000E+00  -1.08892E-06   1.44573E-05   1.16011E-02   2.16347E-05  -1.89295E-03  -2.41280E-06  -2.98810E-06   2.24287E-04
 0.394   3.92053E-03                 0.00000E+00   3.63763E-07   8.69806E-06   1.15970E-02   2.13695E-05  -1.94684E-03   1.72020E-06  -3.26458E-06   2.29645E-04
 0.404   3.92212E-03                 0.00000E+00   6.06398E-07   5.95709E-06   1.15919E-02   2.12108E-05  -2.00477E-03   2.17736E-06  -3.15192E-06   2.35233E-04
 0.414   3.92344E-03                 0.00000E+00  -1.11418E-06   6.11739E-06   1.15862E-02   2.08509E-05  -2.05954E-03  -1.74754E-06  -2.78913E-06   2.41216E-04
 0.424   3.92420E-03                 0.00000E+00  -1.66689E-06   8.86950E-07   1.15792E-02   2.01557E-05  -2.11057E-03  -2.36480E-06  -2.96804E-06   2.46830E-04
 0.434   3.92447E-03                 0.00000E+00  -4.54770E-07  -9.26783E-06   1.15700E-02   1.93521E-05  -2.16415E-03   1.20872E-06  -3.21878E-06   2.51948E-04
 0.444   3.92439E-03                 0.00000E+00  -5.91895E-07  -1.66466E-05   1.15588E-02   1.87162E-05  -2.22118E-03   2.27339E-06  -3.07218E-06   2.57142E-04
 0.455   3.92370E-03                 0.00000E+00  -2.60052E-06  -2.25196E-05   1.15459E-02   1.81365E-05  -2.27618E-03  -9.05684E-07  -2.67222E-06   2.62751E-04
 0.465   3.92197E-03                 0.00000E+00  -3.44909E-06  -3.54557E-05   1.15303E-02   1.70689E-05  -2.32724E-03  -2.74516E-06  -2.79212E-06   2.68228E-04
 0.475   3.91903E-03                 0.00000E+00  -2.36450E-06  -5.57173E-05   1.15106E-02   1.52182E-05  -2.37861E-03  -3.93226E-07  -3.06927E-06   2.73216E-04
 0.485   3.91504E-03                 0.00000E+00  -2.24265E-06  -7.58289E-05   1.14868E-02   1.30159E-05  -2.43298E-03   2.06305E-06  -3.00145E-06   2.77938E-04
 0.495   3.90988E-03                 0.00000E+00  -4.61635E-06  -9.47970E-05   1.14590E-02   1.09855E-05  -2.48738E-03   7.30383E-07  -2.51533E-06   2.82952E-04
 0.505   3.90303E-03                 0.00000E+00  -6.95053E-06  -1.20819E-04   1.14264E-02   8.77776E-06  -2.53808E-03  -2.28396E-06  -2.43437E-06   2.88129E-04
 0.515   3.89399E-03                 0.00000E+00  -7.21691E-06  -1.57918E-04   1.13873E-02   5.55749E-06  -2.58590E-03  -2.59622E-06  -2.71592E-06   2.93034E-04
 0.525   3.88266E-03                 0.00000E+00  -7.13551E-06  -2.00641E-04   1.13405E-02   1.32265E-06  -2.63425E-03   1.04868E-08  -2.87917E-06   2.97336E-04
 0.535   3.86904E-03                 0.00000E+00  -9.31633E-06  -2.44671E-04   1.12859E-02  -3.02874E-06  -2.68385E-03   1.65382E-06  -2.41785E-06   3.01508E-04
 0.545   3.85273E-03                 0.00000E+00  -1.28876E-05  -2.95490E-04   1.12227E-02  -7.24456E-06  -2.73178E-03  -9.61562E-08  -1.99676E-06   3.05957E-04
 0.556   3.83302E-03                 0.00000E+00  -1.49579E-05  -3.61355E-04   1.11489E-02  -1.25910E-05  -2.77524E-03  -3.12268E-06  -2.03096E-06   3.10751E-04
 0.566   3.80930E-03                 0.00000E+00  -1.53552E-05  -4.42276E-04   1.10625E-02  -2.03974E-05  -2.81484E-03  -3.63841E-06  -2.43998E-06   3.15146E-04
 0.576   3.78140E-03                 0.00000E+00  -1.71506E-05  -5.32119E-04   1.09619E-02  -3.01942E-05  -2.85321E-03  -1.12907E-06  -2.35048E-06   3.18871E-04
 0.586   3.74920E-03                 0.00000E+00  -2.24546E-05  -6.29432E-04   1.08466E-02  -4.02180E-05  -2.89114E-03   1.00691E-06  -1.81107E-06   3.22103E-04
 0.596   3.71226E-03                 0.00000E+00  -2.95729E-05  -7.40660E-04   1.07149E-02  -4.98054E-05  -2.92589E-03  -4.13224E-07  -1.32815E-06   3.25653E-04
 0.606   3.66981E-03                 0.00000E+00  -3.57722E-05  -8.71786E-04   1.05646E-02  -6.03280E-05  -2.95367E-03  -4.23203E-06  -1.59100E-06   3.29389E-04
 0.616   3.62122E-03                 0.00000E+00  -4.11528E-05  -1.02121E-03   1.03931E-02  -7.31572E-05  -2.97350E-03  -6.17675E-06  -2.01356E-06   3.32751E-04
 0.626   3.56633E-03                 0.00000E+00  -4.81690E-05  -1.18399E-03   1.01989E-02  -8.74694E-05  -2.98769E-03  -4.01621E-06  -1.99790E-06   3.34876E-04
 0.636   3.50528E-03                 0.00000E+00  -5.78238E-05  -1.36038E-03   9.98075E-03  -1.01132E-04  -2.99838E-03  -7.32905E-07  -1.28703E-06   3.36319E-04
 0.646   3.43813E-03                 0.00000E+00  -6.83277E-05  -1.55619E-03   9.73709E-03  -1.13707E-04  -3.00370E-03  -1.18759E-06  -8.84156E-07   3.37791E-04
 0.657   3.36452E-03                 0.00000E+00  -7.83488E-05  -1.77451E-03   9.46581E-03  -1.27256E-04  -2.99863E-03  -6.01934E-06  -1.21135E-06   3.39820E-04
 0.667   3.28401E-03                 0.00000E+00  -8.97972E-05  -2.01077E-03   9.16494E-03  -1.43192E-04  -2.97968E-03  -1.01290E-05  -2.01617E-06   3.41030E-04
 0.677   3.19665E-03                 0.00000E+00  -1.05787E-04  -2.25802E-03   8.83322E-03  -1.58971E-04  -2.94794E-03  -8.80552E-06  -2.13644E-06   3.40442E-04
 0.687   3.10315E-03                 0.00000E+00  -1.26474E-04  -2.51353E-03   8.47026E-03  -1.69348E-04  -2.90584E-03  -4.20657E-06  -1.62292E-06   3.37673E-04
 0.697   3.00405E-03                 0.00000E+00  -1.49385E-04  -2.77546E-03   8.07616E-03  -1.70933E-04  -2.85094E-03  -3.50548E-06  -1.26257E-06   3.34218E-04
 0.707   2.89866E-03                 0.00000E+00  -1.73102E-04  -3.03456E-03   7.65166E-03  -1.63751E-04  -2.77449E-03  -9.37538E-06  -1.98769E-06   3.30013E-04
 0.717   2.78548E-03                 0.00000E+00  -1.97150E-04  -3.27510E-03   7.19827E-03  -1.47471E-04  -2.66884E-03  -1.53248E-05  -2.86516E-06   3.24227E-04
 0.727   2.66426E-03                 0.00000E+00  -2.16176E-04  -3.48514E-03   6.71921E-03  -1.18782E-04  -2.53575E-03  -1.36608E-05  -2.62192E-06   3.15104E-04
 0.737   2.53690E-03                 0.00000E+00  -2.19969E-04  -3.65885E-03   6.22091E-03  -7.62065E-05  -2.38515E-03  -6.87914E-06  -1.05012E-06   3.04045E-04
 0.747   2.40473E-03                 0.00000E+00  -2.04269E-04  -3.78426E-03   5.71395E-03  -2.63682E-05  -2.22411E-03  -4.70698E-06   1.61827E-07   2.92398E-04
 0.758   2.26644E-03                 0.00000E+00  -1.78374E-04  -3.84135E-03   5.21083E-03   2.03915E-05  -2.05212E-03  -8.48763E-06   2.41675E-07   2.80515E-04
 0.768   2.12127E-03                 0.00000E+00  -1.51320E-04  -3.82117E-03   4.72227E-03   6.13903E-05  -1.87072E-03  -8.03923E-06   5.15890E-07   2.65719E-04
 0.778   1.97223E-03                 0.00000E+00  -1.17681E-04  -3.73161E-03   4.25801E-03   1.00353E-04  -1.69287E-03  -4.30947E-08   2.21423E-06   2.48622E-04
 0.788   1.82044E-03                 0.00000E+00  -7.40686E-05  -3.56840E-03   3.83070E-03   1.34483E-04  -1.53027E-03   4.71213E-06   3.99614E-06   2.30380E-04
 0.798   1.66504E-03                 0.00000E+00  -3.84990E-05  -3.32486E-03   3.45251E-03   1.58979E-04  -1.38038E-03   3.91968E-06   4.05828E-06   2.10553E-04
 0.808   1.51376E-03                 0.00000E+00  -1.13120E-05  -3.03628E-03   3.12854E-03   1.76700E-04  -1.24463E-03   5.99604E-06   3.99288E-06   1.89485E-04
 0.818   1.37762E-03                 0.00000E+00   3.42554E-05  -2.73215E-03   2.86892E-03   1.73908E-04  -1.15049E-03   7.95791E-06   5.29282E-06   1.72949E-04
 0.828   1.26703E-03                 0.00000E+00   6.53633E-05  -2.42840E-03   2.69308E-03   1.36866E-04  -1.11855E-03   8.79488E-06   5.00769E-06   1.55533E-04
 0.838   1.18684E-03                 0.00000E+00   4.29644E-05  -2.18305E-03   2.58353E-03   1.14757E-04  -1.09715E-03   6.42092E-06   1.34540E-06   1.34758E-04
 0.848   1.08317E-03                 0.00000E+00   2.91038E-05  -1.84380E-03   2.47828E-03   1.65994E-04  -9.87883E-04   1.00204E-05   4.39292E-06   1.15947E-04
 0.859   9.11136E-04                 0.00000E+00   6.10569E-05  -1.00864E-03   2.37668E-03   2.38522E-04  -8.58592E-04   3.74925E-05   1.44376E-05   7.83829E-05
 0.869   8.17018E-04                 0.00000E+00   3.21617E-05   3.38521E-04   2.26886E-03   1.90779E-04  -8.40185E-04   3.87251E-05   1.67639E-05   1.50397E-05
 0.879   8.20759E-04                 0.00000E+00  -4.35716E-05   1.21518E-03   1.96990E-03   2.99158E-05  -8.37739E-04   1.42192E-06   3.32996E-06  -3.16894E-05
 0.889   6.13600E-04                 0.00000E+00  -5.50978E-05   1.04963E-03   1.35997E-03  -5.81542E-05  -6.55352E-04  -1.48728E-05  -6.33683E-06  -3.34577E-05
 0.899   3.12258E-04                 0.00000E+00  -3.32265E-05   5.23012E-04   6.89710E-04  -4.29463E-05  -3.53445E-04  -1.03417E-05  -5.15764E-06  -1.72461E-05
 0.909   1.13629E-04                 0.00000E+00  -1.40178E-05   1.74351E-04   2.58624E-04  -1.67932E-05  -1.35567E-04  -4.82462E-06  -2.38387E-06  -5.81383E-06
 0.919   3.22803E-05                 0.00000E+00  -3.41954E-06   3.79391E-05   7.96192E-05  -3.06792E-06  -3.96935E-05  -8.56495E-07  -5.00568E-07  -1.38313E-06
 0.929   1.00090E-05                 0.00000E+00  -1.13907E-06   8.96954E-06   2.60837E-05   2.78365E-07  -1.18003E-05  -2.56280E-07  -1.17521E-07  -3.21926E-07
 0.939   3.30721E-06                 0.00000E+00  -2.93826E-07   2.40692E-06   8.76880E-06   6.46064E-08  -3.95581E-06  -5.41633E-08  -2.57068E-08  -1.06294E-07
 0.949   1.00012E-06                 0.00000E+00  -7.52208E-08   7.11026E-07   2.63741E-06  -3.39674E-08  -1.23777E-06  -1.52680E-08  -7.98372E-09  -3.80043E-08
 0.960   2.06988E-07                 0.00000E+00  -9.96862E-09   1.23273E-07   5.49767E-07  -1.30648E-08  -2.60390E-07  -1.59224E-09  -1.09965E-09  -8.99042E-09
 0.970   3.25256E-08                 0.00000E+00  -1.86178E-09   1.51971E-08   8.79281E-08  -1.82274E-10  -3.94100E-08  -2.73030E-10  -1.74841E-10  -1.47335E-09
 0.980   2.51615E-09                 0.00000E+00  -9.58199E-11   8.12975E-10   6.87858E-09   4.33070E-12  -2.99628E-09  -1.06378E-11  -7.73307E-12  -1.28220E-10
 0.990   1.02762E-10                 0.00000E+00   8.00429E-12   4.37561E-11   2.71895E-10  -2.19981E-11  -1.36384E-10   1.29283E-12   1.01784E-12  -6.87594E-12
 1.000   9.09550E-13                 0.00000E+00   5.44843E-17   8.58302E-15   2.52196E-12  -1.06776E-14  -1.03998E-12  -7.13995E-29   6.68162E-16  -5.91225E-14

 B^s_sinmn; fsq_total:  2.4052E-25
                       MPOL--->             0             1             2             0             1             2             0             1             2
RADIUS        RMS      NTOR--->            -1            -1            -1             0             0             0             1             1             1
 0.010   9.44680E-04                 0.00000E+00   1.06803E-03  -7.95539E-04   0.00000E+00  -6.70744E-04   9.04998E-04  -2.48056E-06   2.14815E-03   6.12144E-04
 0.020   7.35871E-04                 0.00000E+00   1.36084E-03  -1.10515E-03   0.00000E+00  -3.36834E-04   9.11630E-05  -7.54937E-07   1.29416E-03   6.07411E-05
 0.030   8.03295E-04                 0.00000E+00   1.49656E-03  -1.56311E-03   0.00000E+00  -2.17176E-04  -7.26987E-05   1.75415E-06   1.03507E-03   2.68618E-05
 0.040   9.32787E-04                 0.00000E+00   1.58160E-03  -2.07565E-03   0.00000E+00  -2.00919E-04  -5.96470E-05   3.81443E-06   9.85851E-04   7.20651E-05
 0.051   1.07553E-03                 0.00000E+00   1.63190E-03  -2.60532E-03   0.00000E+00  -1.94243E-04  -7.57568E-05   5.85122E-06   9.53513E-04   8.63922E-05
 0.061   1.22777E-03                 0.00000E+00   1.67528E-03  -3.13464E-03   0.00000E+00  -1.90349E-04  -8.49537E-05   7.89715E-06   9.37750E-04   1.06274E-04
 0.071   1.38556E-03                 0.00000E+00   1.71710E-03  -3.66244E-03   0.00000E+00  -1.92305E-04  -9.84289E-05   1.00599E-05   9.24424E-04   1.21591E-04
 0.081   1.54949E-03                 0.00000E+00   1.75505E-03  -4.19799E-03   0.00000E+00  -1.93180E-04  -1.08506E-04   1.22348E-05   9.14799E-04   1.37492E-04
 0.091   1.71903E-03                 0.00000E+00   1.79983E-03  -4.73916E-03   0.00000E+00  -1.94680E-04  -1.23079E-04   1.46505E-05   9.05668E-04   1.51986E-04
 0.101   1.88855E-03                 0.00000E+00   1.84244E-03  -5.27390E-03   0.00000E+00  -1.98574E-04  -1.32070E-04   1.70899E-05   8.97828E-04   1.66240E-04
 0.111   2.06467E-03                 0.00000E+00   1.89083E-03  -5.82281E-03   0.00000E+00  -1.99805E-04  -1.46340E-04   1.97667E-05   8.89638E-04   1.79402E-04
 0.121   2.24089E-03                 0.00000E+00   1.94228E-03  -6.36712E-03   0.00000E+00  -2.03421E-04  -1.56336E-04   2.26003E-05   8.82266E-04   1.92406E-04
 0.131   2.41820E-03                 0.00000E+00   1.99615E-03  -6.91142E-03   0.00000E+00  -2.06760E-04  -1.67012E-04   2.56091E-05   8.74043E-04   2.04292E-04
 0.141   2.60037E-03                 0.00000E+00   2.05533E-03  -7.46719E-03   0.00000E+00  -2.09453E-04  -1.80076E-04   2.88529E-05   8.66261E-04   2.15731E-04
 0.152   2.78033E-03                 0.00000E+00   2.11740E-03  -8.01366E-03   0.00000E+00  -2.13192E-04  -1.87476E-04   3.22995E-05   8.58512E-04   2.26220E-04
 0.162   2.96420E-03                 0.00000E+00   2.18428E-03  -8.56967E-03   0.00000E+00  -2.15388E-04  -2.01007E-04   3.60033E-05   8.50871E-04   2.35826E-04
 0.172   3.14916E-03                 0.00000E+00   2.25486E-03  -9.12714E-03   0.00000E+00  -2.17580E-04  -2.10576E-04   3.99418E-05   8.44032E-04   2.44689E-04
 0.182   3.33309E-03                 0.00000E+00   2.32893E-03  -9.67982E-03   0.00000E+00  -2.19735E-04  -2.19318E-04   4.41377E-05   8.36867E-04   2.52703E-04
 0.192   3.52123E-03                 0.00000E+00   2.40814E-03  -1.02436E-02   0.00000E+00  -2.21071E-04  -2.32910E-04   4.86432E-05   8.29537E-04   2.59788E-04
 0.202   3.70767E-03                 0.00000E+00   2.49068E-03  -1.08009E-02   0.00000E+00  -2.23359E-04  -2.40117E-04   5.34120E-05   8.22432E-04   2.66187E-04
