
 p_cosmn; fsq_total:  2.4530E-25
                       MPOL--->             0             1             2             0             1             2             0             1             2
RADIUS        RMS      NTOR--->            -1            -1            -1             0             0             0             1             1             1
 0.010   3.87104E-03                 0.00000E+00   5.52232E-07   1.10076E-07   1.16130E-02   2.14123E-05  -5.38437E-05   1.96926E-08  -2.18739E-06   7.71030E-06
 0.020   3.87118E-03                 0.00000E+00   4.52799E-07   4.20287E-07   1.16131E-02   2.20775E-05  -9.69551E-05   4.37331E-08  -2.92086E-06   1.24013E-05
 0.030   3.87130E-03                 0.00000E+00   4.49142E-07   6.07499E-07   1.16130E-02   2.16138E-05  -1.40700E-04  -5.82276E-08  -3.08502E-06   1.76416E-05
 0.040   3.87166E-03                 0.00000E+00   6.53607E-07   4.69293E-07   1.16135E-02   2.18864E-05  -1.84874E-04   5.77025E-08  -3.09929E-06   2.29358E-05
 0.051   3.87185E-03                 0.00000E+00   2.01934E-07   7.79451E-07   1.16132E-02   2.18085E-05  -2.29324E-04  -5.59669E-08  -3.09030E-06   2.84557E-05
 0.061   3.87215E-03                 0.00000E+00   6.88468E-07   9.17117E-07   1.16131E-02   2.18570E-05  -2.74389E-04   5.42637E-08  -3.13839E-06   3.39018E-05
 0.071   3.87260E-03                 0.00000E+00   3.53332E-07   1.17779E-06   1.16133E-02   2.18466E-05  -3.19571E-04  -5.99982E-08  -3.08994E-06   3.95710E-05
 0.081   3.87301E-03                 0.00000E+00   5.34173E-07   1.36694E-06   1.16132E-02   2.18354E-05  -3.65431E-04   6.95727E-08  -3.15442E-06   4.51449E-05
 0.091   3.87359E-03                 0.00000E+00   4.79576E-07   1.69301E-06   1.16134E-02   2.19023E-05  -4.11323E-04  -7.88705E-08  -3.08924E-06   5.09443E-05
 0.101   3.87416E-03                 0.00000E+00   4.63601E-07   2.08106E-06   1.16133E-02   2.17098E-05  -4.57772E-04   8.42357E-08  -3.18697E-06   5.66678E-05
 0.111   3.87490E-03                 0.00000E+00   4.90328E-07   2.37205E-06   1.16136E-02   2.18359E-05  -5.04186E-04  -8.32497E-08  -3.13744E-06   6.26369E-05
 0.121   3.87560E-03                 0.00000E+00   4.25611E-07   3.08027E-06   1.16135E-02   2.15043E-05  -5.50904E-04   7.49915E-08  -3.23943E-06   6.85864E-05
 0.131   3.87647E-03                 0.00000E+00   4.37772E-07   3.35070E-06   1.16138E-02   2.18194E-05  -5.97943E-04  -6.02202E-08  -3.15880E-06   7.46597E-05
 0.141   3.87728E-03                 0.00000E+00   4.88895E-07   3.99738E-06   1.16136E-02   2.18115E-05  -6.45667E-04   3.88930E-08  -3.11551E-06   8.05984E-05
 0.152   3.87828E-03                 0.00000E+00   4.89882E-07   4.29367E-06   1.16137E-02   2.23409E-05  -6.94426E-04  -1.19642E-08  -3.00122E-06   8.64078E-05
 0.162   3.87932E-03                 0.00000E+00   6.94127E-07   4.74156E-06   1.16138E-02   2.23063E-05  -7.43733E-04  -1.10734E-08  -2.96624E-06   9.21793E-05
 0.172   3.88049E-03                 0.00000E+00   4.53345E-07   5.20861E-06   1.16140E-02   2.20642E-05  -7.93173E-04   2.41492E-08  -3.08276E-06   9.80456E-05
 0.182   3.88166E-03                 0.00000E+00   5.00355E-07   5.51724E-06   1.16140E-02   2.19801E-05  -8.42420E-04  -3.10650E-08  -3.10258E-06   1.04127E-04
 0.192   3.88288E-03                 0.00000E+00   4.48712E-07   6.39892E-06   1.16139E-02   2.20295E-05  -8.92064E-04   3.24254E-08  -3.11693E-06   1.10168E-04
 0.202   3.88425E-03                 0.00000E+00   5.73025E-07   6.87054E-06   1.16140E-02   2.23447E-05  -9.42443E-04  -2.25787E-08  -3.01955E-06   1.16169E-04
 0.212   3.88570E-03                 0.00000E+00   5.89966E-07   7.56298E-06   1.16140E-02   2.22825E-05  -9.93278E-04   4.63557E-09  -3.04163E-06   1.22119E-04
 0.222   3.88723E-03                 0.00000E+00   4.91772E-07   8.06208E-06   1.16141E-02   2.22794E-05  -1.04442E-03   1.19985E-08  -3.06236E-06   1.28134E-04
 0.232   3.88879E-03                 0.00000E+00   5.31545E-07   8.70035E-06   1.16140E-02   2.22785E-05  -1.09567E-03  -2.56912E-08  -3.07964E-06   1.34204E-04
 0.242   3.89046E-03                 0.00000E+00   5.19095E-07   9.54800E-06   1.16140E-02   2.23426E-05  -1.14734E-03   3.49031E-08  -3.07802E-06   1.40260E-04
 0.253   3.89222E-03                 0.00000E+00   5.67906E-07   1.01856E-05   1.16139E-02   2.23795E-05  -1.19936E-03  -3.61170E-08  -3.07200E-06   1.46327E-04
 0.263   3.89404E-03                 0.00000E+00   4.99064E-07   1.10115E-05   1.16139E-02   2.23575E-05  -1.25160E-03   2.26044E-08  -3.08398E-06   1.52391E-04
 0.273   3.89595E-03                 0.00000E+00   5.26315E-07   1.17587E-05   1.16137E-02   2.24187E-05  -1.30418E-03  -1.64276E-10  -3.10074E-06   1.58467E-04
 0.283   3.89792E-03                 0.00000E+00   5.16248E-07   1.25898E-05   1.16136E-02   2.23929E-05  -1.35689E-03  -2.74118E-08  -3.08105E-06   1.64551E-04
 0.293   3.89997E-03                 0.00000E+00   4.90400E-07   1.35098E-05   1.16134E-02   2.24247E-05  -1.40994E-03   4.36475E-08  -3.11971E-06   1.70596E-04
 0.303   3.90209E-03                 0.00000E+00   4.90992E-07   1.42737E-05   1.16131E-02   2.24329E-05  -1.46317E-03  -4.81204E-08  -3.08429E-06   1.76667E-04
 0.313   3.90426E-03                 0.00000E+00   4.51356E-07   1.52506E-05   1.16127E-02   2.24193E-05  -1.51654E-03   2.60190E-08  -3.12251E-06   1.82686E-04
 0.323   3.90649E-03                 0.00000E+00   4.36651E-07   1.60955E-05   1.16122E-02   2.24574E-05  -1.57023E-03   2.45906E-09  -3.10063E-06   1.88699E-04
 0.333   3.90876E-03                 0.00000E+00   4.02917E-07   1.69526E-05   1.16116E-02   2.24285E-05  -1.62393E-03  -4.38140E-08  -3.11021E-06   1.94685E-04
 0.343   3.91106E-03                 0.00000E+00   3.38507E-07   1.78829E-05   1.16108E-02   2.24480E-05  -1.67790E-03   5.35938E-08  -3.11411E-06   2.00616E-04
 0.354   3.91339E-03                 0.00000E+00   3.15785E-07   1.86123E-05   1.16098E-02   2.24621E-05  -1.73202E-03  -5.50986E-08  -3.10706E-06   2.06532E-04
 0.364   3.91570E-03                 0.00000E+00   2.16333E-07   1.94151E-05   1.16085E-02   2.24280E-05  -1.78616E-03   2.75087E-09  -3.10248E-06   2.12389E-04
 0.374   3.91800E-03                 0.00000E+00   1.44896E-07   2.00988E-05   1.16069E-02   2.24707E-05  -1.84059E-03   2.43542E-08  -3.11975E-06   2.18180E-04
 0.384   3.92025E-03                 0.00000E+00   4.93106E-08   2.05581E-05   1.16049E-02   2.24431E-05  -1.89499E-03  -7.95274E-08  -3.07840E-06   2.23957E-04
 0.394   3.92240E-03                 0.00000E+00  -1.03115E-07   2.10241E-05   1.16023E-02   2.24320E-05  -1.94949E-03   3.87353E-08  -3.11624E-06   2.29615E-04
 0.404   3.92444E-03                 0.00000E+00  -2.41173E-07   2.11563E-05   1.15991E-02   2.24585E-05  -2.00418E-03  -3.56634E-08  -3.07341E-06   2.35245E-04
 0.414   3.92629E-03                 0.00000E+00  -4.23681E-07   2.10003E-05   1.15950E-02   2.24008E-05  -2.05872E-03  -7.37222E-08  -3.07886E-06   2.40792E-04
 0.424   3.92791E-03                 0.00000E+00  -6.92652E-07   2.06691E-05   1.15900E-02   2.23964E-05  -2.11340E-03   3.60311E-08  -3.07125E-06   2.46227E-04
 0.434   3.92925E-03                 0.00000E+00  -9.15048E-07   1.97174E-05   1.15839E-02   2.23827E-05  -2.16806E-03  -1.00224E-07  -3.04513E-06   2.51612E-04
 0.444   3.93018E-03                 0.00000E+00  -1.28508E-06   1.83511E-05   1.15763E-02   2.22847E-05  -2.22251E-03  -6.57445E-08  -3.02584E-06   2.56881E-04
 0.455   3.93066E-03                 0.00000E+00  -1.68302E-06   1.64266E-05   1.15670E-02   2.22656E-05  -2.27701E-03  -8.38133E-09  -3.02975E-06   2.62011E-04
 0.465   3.93055E-03                 0.00000E+00  -2.11464E-06   1.35699E-05   1.15558E-02   2.21689E-05  -2.33125E-03  -1.64823E-07  -2.95860E-06   2.67091E-04
 0.475   3.92971E-03                 0.00000E+00  -2.70857E-06   9.91060E-06   1.15421E-02   2.20173E-05  -2.38515E-03  -8.52626E-08  -2.97321E-06   2.71977E-04
 0.485   3.92803E-03                 0.00000E+00  -3.37823E-06   5.23137E-06   1.15256E-02   2.19246E-05  -2.43887E-03  -8.90456E-08  -2.91604E-06   2.76741E-04
 0.495   3.92531E-03                 0.00000E+00  -4.07748E-06  -9.68842E-07   1.15058E-02   2.17157E-05  -2.49199E-03  -2.47376E-07  -2.86742E-06   2.81386E-04
 0.505   3.92134E-03                 0.00000E+00  -5.06546E-06  -8.52391E-06   1.14820E-02   2.14477E-05  -2.54451E-03  -1.51734E-07  -2.84023E-06   2.85805E-04
 0.515   3.91593E-03                 0.00000E+00  -6.08453E-06  -1.78701E-05   1.14536E-02   2.12226E-05  -2.59642E-03  -2.14347E-07  -2.78496E-06   2.90051E-04
 0.525   3.90880E-03                 0.00000E+00  -7.25301E-06  -2.95301E-05   1.14198E-02   2.08221E-05  -2.64727E-03  -3.71190E-07  -2.68947E-06   2.94140E-04
 0.535   3.89963E-03                 0.00000E+00  -8.75817E-06  -4.34773E-05   1.13798E-02   2.03791E-05  -2.69699E-03  -2.86203E-07  -2.67907E-06   2.97907E-04
 0.545   3.88815E-03                 0.00000E+00  -1.03326E-05  -6.02688E-05   1.13326E-02   1.99202E-05  -2.74544E-03  -4.04097E-07  -2.55814E-06   3.01484E-04
 0.556   3.87395E-03                 0.00000E+00  -1.21123E-05  -8.05840E-05   1.12771E-02   1.92367E-05  -2.79206E-03  -5.67889E-07  -2.47357E-06   3.04785E-04
 0.566   3.85660E-03                 0.00000E+00  -1.43728E-05  -1.04493E-04   1.12119E-02   1.84834E-05  -2.83668E-03  -5.16268E-07  -2.41371E-06   3.07700E-04
 0.576   3.83568E-03                 0.00000E+00  -1.67236E-05  -1.32645E-04   1.11359E-02   1.77047E-05  -2.87894E-03  -6.82713E-07  -2.29073E-06   3.10306E-04
 0.586   3.81066E-03                 0.00000E+00  -1.93148E-05  -1.66007E-04   1.10476E-02   1.66316E-05  -2.91820E-03  -8.80282E-07  -2.14517E-06   3.12565E-04
 0.596   3.78096E-03                 0.00000E+00  -2.25382E-05  -2.04731E-04   1.09450E-02   1.54563E-05  -2.95406E-03  -8.68103E-07  -2.10345E-06   3.14266E-04
 0.606   3.74602E-03                 0.00000E+00  -2.58580E-05  -2.49593E-04   1.08266E-02   1.41964E-05  -2.98590E-03  -1.10999E-06  -1.91759E-06   3.15586E-04
 0.616   3.70518E-03                 0.00000E+00  -2.95021E-05  -3.01642E-04   1.06904E-02   1.26124E-05  -3.01289E-03  -1.33385E-06  -1.77252E-06   3.16355E-04
 0.626   3.65771E-03                 0.00000E+00  -3.39206E-05  -3.61156E-04   1.05343E-02   1.09744E-05  -3.03433E-03  -1.38110E-06  -1.69590E-06   3.16424E-04
 0.636   3.60290E-03                 0.00000E+00  -3.83736E-05  -4.28944E-04   1.03559E-02   9.29979E-06  -3.04925E-03  -1.71592E-06  -1.52417E-06   3.15929E-04
 0.646   3.54006E-03                 0.00000E+00  -4.29644E-05  -5.06334E-04   1.01532E-02   7.17879E-06  -3.05664E-03  -2.01002E-06  -1.31274E-06   3.14771E-04
 0.657   3.46834E-03                 0.00000E+00  -4.85970E-05  -5.93449E-04   9.92354E-03   5.01878E-06  -3.05544E-03  -2.08086E-06  -1.29047E-06   3.12612E-04
 0.667   3.38699E-03                 0.00000E+00  -5.43066E-05  -6.90691E-04   9.66452E-03   3.06901E-06  -3.04411E-03  -2.54226E-06  -1.09780E-06   3.09752E-04
 0.677   3.29538E-03                 0.00000E+00  -5.98101E-05  -7.99033E-04   9.37400E-03   9.57410E-07  -3.02127E-03  -2.90039E-06  -8.98483E-07   3.05984E-04
 0.687   3.19282E-03                 0.00000E+00  -6.61784E-05  -9.18370E-04   9.04953E-03  -8.89835E-07  -2.98574E-03  -2.97514E-06  -8.78029E-07   3.01014E-04
 0.697   3.07875E-03                 0.00000E+00  -7.21806E-05  -1.04864E-03   8.68902E-03  -2.27465E-06  -2.93555E-03  -3.60986E-06  -7.67123E-07   2.95202E-04
 0.707   2.95299E-03                 0.00000E+00  -7.75337E-05  -1.18972E-03   8.29126E-03  -3.72364E-06  -2.86914E-03  -4.01697E-06  -5.25448E-07   2.88410E-04
 0.717   2.81538E-03                 0.00000E+00  -8.40774E-05  -1.33935E-03   7.85504E-03  -3.84677E-06  -2.78501E-03  -3.90139E-06  -6.27817E-07   2.79953E-04
 0.727   2.66596E-03                 0.00000E+00  -8.95935E-05  -1.49425E-03   7.38014E-03  -1.68361E-06  -2.68057E-03  -4.65314E-06  -5.13899E-07   2.70643E-04
 0.737   2.50578E-03                 0.00000E+00  -9.21421E-05  -1.65130E-03   6.86863E-03   1.49351E-06  -2.55527E-03  -4.97590E-06  -2.54910E-07   2.60331E-04
 0.747   2.33631E-03                 0.00000E+00  -9.46783E-05  -1.80482E-03   6.32381E-03   6.53474E-06  -2.40972E-03  -4.41269E-06  -3.11121E-07   2.48259E-04
 0.758   2.15890E-03                 0.00000E+00  -9.55102E-05  -1.94512E-03   5.75088E-03   1.51580E-05  -2.24203E-03  -4.95091E-06  -1.96931E-07   2.35270E-04
 0.768   1.97572E-03                 0.00000E+00  -9.24932E-05  -2.05843E-03   5.15952E-03   2.74316E-05  -2.05312E-03  -4.25336E-06   3.31137E-07   2.20920E-04
 0.778   1.78947E-03                 0.00000E+00  -8.59678E-05  -2.12871E-03   4.56299E-03   4.43000E-05  -1.84836E-03  -2.64343E-06   5.22524E-07   2.04371E-04
 0.788   1.60385E-03                 0.00000E+00  -7.14225E-05  -2.14127E-03   3.98039E-03   6.02127E-05  -1.63657E-03  -2.41632E-06   1.37897E-06   1.87921E-04
 0.798   1.42367E-03                 0.00000E+00  -5.42220E-05  -2.08794E-03   3.43497E-03   7.14820E-05  -1.43045E-03   3.91096E-07   2.01011E-06   1.69313E-04
 0.808   1.25111E-03                 0.00000E+00  -4.00123E-05  -1.96379E-03   2.94527E-03   8.43880E-05  -1.23508E-03   2.31150E-06   2.30143E-06   1.48980E-04
 0.818   1.09249E-03                 0.00000E+00  -1.57585E-05  -1.77458E-03   2.53473E-03   8.70278E-05  -1.06900E-03   2.82494E-06   3.42002E-06   1.30782E-04
 0.828   9.61453E-04                 0.00000E+00   1.02042E-06  -1.55936E-03   2.22741E-03   7.45482E-05  -9.53263E-04   4.94433E-06   2.80670E-06   1.10874E-04
 0.838   8.46811E-04                 0.00000E+00   2.62708E-06  -1.28707E-03   2.01483E-03   8.41639E-05  -8.49977E-04   7.44564E-06   3.01546E-06   8.99304E-05
 0.848   7.16638E-04                 0.00000E+00   4.25631E-06  -6.98846E-04   1.88314E-03   1.15329E-04  -7.55035E-04   2.13476E-05   8.30240E-06   5.99538E-05
 0.859   6.42711E-04                 0.00000E+00  -1.17620E-05   1.93522E-04   1.77603E-03   8.36862E-05  -7.19699E-04   1.98540E-05   9.92029E-06   1.88522E-05
 0.869   5.80021E-04                 0.00000E+00  -3.02004E-05   6.62108E-04   1.47268E-03   7.50309E-06  -6.47806E-04  -1.67698E-06   4.54309E-07  -5.88939E-06
 0.879   3.74962E-04                 0.00000E+00  -2.71385E-05   4.64084E-04   9.27313E-04  -1.51387E-05  -4.34744E-04  -8.42091E-06  -3.95044E-06  -5.70805E-06
 0.889   1.76157E-04                 0.00000E+00  -1.44614E-05   1.70080E-04   4.52602E-04  -3.51498E-06  -2.12748E-04  -4.37586E-06  -1.91136E-06  -6.84230E-07
 0.899   7.94802E-05                 0.00000E+00  -5.50216E-06   4.86557E-05   2.12154E-04   1.17613E-06  -9.71807E-05  -1.08659E-06  -5.19477E-07   2.02580E-07
 0.909   3.95766E-05                 0.00000E+00  -2.55811E-06   1.80838E-05   1.06907E-04   1.33493E-06  -4.82914E-05  -3.63496E-07  -1.30691E-07   1.98563E-07
 0.919   1.89542E-05                 0.00000E+00  -1.07546E-06   7.94720E-06   5.12632E-05   5.11839E-07  -2.32557E-05  -1.54754E-07  -8.89494E-08  -1.26869E-08
 0.929   7.90211E-06                 0.00000E+00  -5.23102E-07   2.57044E-06   2.15004E-05   3.61429E-07  -9.62848E-06  -6.45743E-08  -2.76512E-08   1.50190E-09
 0.939   2.87471E-06                 0.00000E+00  -1.59795E-07   9.01667E-07   7.82829E-06   1.20547E-07  -3.49849E-06  -2.03260E-08  -1.21780E-08  -1.92903E-08
 0.949   8.30971E-07                 0.00000E+00  -5.40677E-08   1.90944E-07   2.27319E-06   4.44441E-08  -1.00288E-06  -6.18303E-09  -3.10938E-09  -6.95806E-09
 0.960   1.88061E-07                 0.00000E+00  -8.29263E-09   4.40527E-08   5.15478E-07   9.67487E-09  -2.24650E-07  -9.07251E-10  -7.00653E-10  -3.57611E-09
 0.970   2.79582E-08                 0.00000E+00  -1.60194E-09   3.58437E-09   7.69223E-08   1.42622E-09  -3.31669E-08  -1.59032E-10  -9.77813E-11  -6.35500E-10
 0.980   2.47760E-09                 0.00000E+00  -9.52088E-11   2.38849E-10   6.83965E-09   1.08589E-10  -2.89475E-09  -8.22152E-12  -7.42077E-12  -8.97727E-11
 0.990   8.94998E-11                 0.00000E+00  -2.86525E-11  -6.52930E-11   2.29056E-10  -1.31019E-11  -1.19790E-10  -3.48074E-12  -7.76179E-13   2.69163E-12
 1.000   7.16598E-13                 0.00000E+00   4.29260E-17   6.76222E-15   1.98695E-12  -8.41247E-15  -8.19359E-13   3.56998E-29   5.26419E-16  -4.65803E-14

 B^s_sinmn; fsq_total:  2.4530E-25
                       MPOL--->             0             1             2             0             1             2             0             1             2
RADIUS        RMS      NTOR--->            -1            -1            -1             0             0             0             1             1             1
 0.010   8.34568E-04                 0.00000E+00   1.54065E-03   5.03758E-04   0.00000E+00   2.58628E-04   6.37145E-04  -5.55393E-07   1.69154E-03   5.54077E-04
 0.020   7.32289E-04                 0.00000E+00   1.83662E-03  -6.58002E-05   0.00000E+00   2.84973E-04   7.54755E-05   2.49558E-06   1.16260E-03   1.00929E-04
 0.030   7.69952E-04                 0.00000E+00   1.99615E-03  -5.44709E-04   0.00000E+00   2.60565E-04  -6.89269E-05   6.41703E-06   9.89492E-04   4.84636E-05
 0.040   8.15009E-04                 0.00000E+00   2.06637E-03  -8.53499E-04   0.00000E+00   2.47097E-04  -7.94875E-05   9.93600E-06   9.51707E-04   8.11652E-05
 0.051   8.55314E-04                 0.00000E+00   2.11103E-03  -1.09061E-03   0.00000E+00   2.39980E-04  -1.05617E-04   1.35121E-05   9.27340E-04   9.64959E-05
 0.061   8.98751E-04                 0.00000E+00   2.14126E-03  -1.32881E-03   0.00000E+00   2.32415E-04  -1.25357E-04   1.70295E-05   9.14005E-04   1.16794E-04
 0.071   9.44558E-04                 0.00000E+00   2.16477E-03  -1.56065E-03   0.00000E+00   2.28600E-04  -1.47899E-04   2.05700E-05   9.02904E-04   1.34488E-04
 0.081   9.93713E-04                 0.00000E+00   2.18661E-03  -1.78998E-03   0.00000E+00   2.23644E-04  -1.68587E-04   2.41568E-05   8.94067E-04   1.53371E-04
 0.091   1.04638E-03                 0.00000E+00   2.20628E-03  -2.02181E-03   0.00000E+00   2.19777E-04  -1.90037E-04   2.77753E-05   8.85599E-04   1.71234E-04
 0.101   1.10205E-03                 0.00000E+00   2.22620E-03  -2.25299E-03   0.00000E+00   2.16265E-04  -2.10814E-04   3.14530E-05   8.77842E-04   1.89534E-04
 0.111   1.16044E-03                 0.00000E+00   2.24615E-03  -2.48488E-03   0.00000E+00   2.12528E-04  -2.31562E-04   3.51900E-05   8.69927E-04   2.07297E-04
 0.121   1.22158E-03                 0.00000E+00   2.26687E-03  -2.71823E-03   0.00000E+00   2.09330E-04  -2.52063E-04   3.89916E-05   8.62101E-04   2.25118E-04
 0.131   1.28468E-03                 0.00000E+00   2.28848E-03  -2.95128E-03   0.00000E+00   2.05677E-04  -2.72265E-04   4.28681E-05   8.53923E-04   2.42602E-04
 0.141   1.34993E-03                 0.00000E+00   2.31105E-03  -3.18568E-03   0.00000E+00   2.02310E-04  -2.92285E-04   4.68105E-05   8.45656E-04   2.59889E-04
 0.152   1.41682E-03                 0.00000E+00   2.33498E-03  -3.42006E-03   0.00000E+00   1.99123E-04  -3.12057E-04   5.08393E-05   8.37412E-04   2.76833E-04
 0.162   1.48533E-03                 0.00000E+00   2.35992E-03  -3.65524E-03   0.00000E+00   1.96551E-04  -3.31665E-04   5.49411E-05   8.29502E-04   2.93427E-04
 0.172   1.55538E-03                 0.00000E+00   2.38633E-03  -3.89129E-03   0.00000E+00   1.94678E-04  -3.51245E-04   5.91443E-05   8.21850E-04   3.09638E-04
 0.182   1.62651E-03                 0.00000E+00   2.41378E-03  -4.12747E-03   0.00000E+00   1.92932E-04  -3.70590E-04   6.34212E-05   8.14182E-04   3.25484E-04
 0.192   1.69880E-03                 0.00000E+00   2.44273E-03  -4.36426E-03   0.00000E+00   1.91325E-04  -3.89823E-04   6.77931E-05   8.06253E-04   3.40949E-04
 0.202   1.77188E-03                 0.00000E+00   2.47299E-03  -4.60087E-03   0.00000E+00   1.89844E-04  -4.08866E-04   7.22555E-05   7.98199E-04   3.56068E-04
