
 p_cosmn; fsq_total:  5.6077E-25
                       MPOL--->             0             1             2             0             1             2             0             1             2
RADIUS        RMS      NTOR--->            -1            -1            -1             0             0             0             1             1             1
 0.010   3.87490E-03                 0.00000E+00   1.11860E-06  -3.55620E-06   1.16246E-02   2.17713E-05  -5.28721E-05   3.59316E-07  -2.14067E-06   7.77391E-06
 0.020   3.87278E-03                 0.00000E+00  -8.16508E-07   6.89742E-07   1.16179E-02   2.16287E-05  -9.73916E-05  -2.88528E-07  -2.58089E-06   1.25199E-05
 0.030   3.87286E-03                 0.00000E+00   1.55734E-06   8.61583E-07   1.16177E-02   2.16128E-05  -1.40543E-04   4.83488E-07  -3.37040E-06   1.75466E-05
 0.040   3.87332E-03                 0.00000E+00  -4.82400E-07   8.05541E-08   1.16185E-02   2.19982E-05  -1.85134E-04  -6.50619E-07  -2.86230E-06   2.30516E-05
 0.051   3.87329E-03                 0.00000E+00   1.22568E-06   8.31450E-07   1.16176E-02   2.16999E-05  -2.29164E-04   7.40397E-07  -3.26000E-06   2.83654E-05
 0.061   3.87371E-03                 0.00000E+00  -1.60390E-07   9.32982E-07   1.16178E-02   2.18941E-05  -2.74910E-04  -7.28611E-07  -3.03728E-06   3.40122E-05
 0.071   3.87406E-03                 0.00000E+00   8.60865E-07   1.07140E-06   1.16177E-02   2.19306E-05  -3.19053E-04   5.49746E-07  -3.11639E-06   3.94917E-05
 0.081   3.87445E-03                 0.00000E+00   4.42519E-07   1.13793E-06   1.16175E-02   2.16690E-05  -3.66408E-04  -1.61147E-07  -3.19994E-06   4.52568E-05
 0.091   3.87504E-03                 0.00000E+00   3.50822E-08   2.27491E-06   1.16177E-02   2.20926E-05  -4.10598E-04  -4.21608E-07  -2.98128E-06   5.08684E-05
 0.101   3.87557E-03                 0.00000E+00   1.26190E-06   1.07350E-06   1.16175E-02   2.16553E-05  -4.58537E-04   1.04341E-06  -3.32832E-06   5.67794E-05
 0.111   3.87622E-03                 0.00000E+00  -3.78612E-07   3.31147E-06   1.16175E-02   2.17204E-05  -5.04411E-04  -1.41163E-06  -3.00528E-06   6.25805E-05
 0.121   3.87702E-03                 0.00000E+00   8.50088E-07   2.76775E-06   1.16178E-02   2.17719E-05  -5.50214E-04   1.18499E-06  -3.30660E-06   6.86771E-05
 0.131   3.87771E-03                 0.00000E+00   6.32346E-07   2.46769E-06   1.16174E-02   2.15502E-05  -5.99611E-04  -2.33497E-07  -3.19018E-06   7.46189E-05
 0.141   3.87857E-03                 0.00000E+00  -2.67454E-07   5.31698E-06   1.16175E-02   2.19658E-05  -6.44589E-04  -1.09314E-06  -2.99263E-06   8.07175E-05
 0.152   3.87955E-03                 0.00000E+00   1.26354E-06   3.06484E-06   1.16176E-02   2.22806E-05  -6.94847E-04   1.94997E-06  -3.13530E-06   8.63164E-05
 0.162   3.88049E-03                 0.00000E+00   2.26734E-07   4.61625E-06   1.16172E-02   2.23875E-05  -7.45192E-04  -1.50632E-06  -2.92835E-06   9.23207E-05
 0.172   3.88162E-03                 0.00000E+00   2.92023E-07   6.31560E-06   1.16175E-02   2.20794E-05  -7.91544E-04  -2.03296E-07  -2.95304E-06   9.80291E-05
 0.182   3.88280E-03                 0.00000E+00   1.20891E-06   3.61760E-06   1.16173E-02   2.17929E-05  -8.43589E-04   1.88867E-06  -3.33075E-06   1.04143E-04
 0.192   3.88393E-03                 0.00000E+00  -2.67547E-07   6.82248E-06   1.16169E-02   2.21004E-05  -8.93314E-04  -1.88377E-06  -2.93776E-06   1.10221E-04
 0.202   3.88527E-03                 0.00000E+00   2.60250E-07   7.85581E-06   1.16172E-02   2.24296E-05  -9.40624E-04  -1.17197E-07  -3.03798E-06   1.16257E-04
 0.212   3.88667E-03                 0.00000E+00   1.53404E-06   4.93736E-06   1.16169E-02   2.22848E-05  -9.94406E-04   2.16188E-06  -3.11939E-06   1.22013E-04
 0.222   3.88805E-03                 0.00000E+00   5.20819E-08   8.31397E-06   1.16164E-02   2.21963E-05  -1.04606E-03  -1.76787E-06  -3.04104E-06   1.28320E-04
 0.232   3.88962E-03                 0.00000E+00  -1.03180E-07   1.02584E-05   1.16167E-02   2.22282E-05  -1.09392E-03  -8.81734E-07  -2.93571E-06   1.34202E-04
 0.242   3.89127E-03                 0.00000E+00   1.37602E-06   6.57878E-06   1.16164E-02   2.22501E-05  -1.14747E-03   2.41747E-06  -3.27584E-06   1.40247E-04
 0.253   3.89285E-03                 0.00000E+00   4.36196E-07   8.74764E-06   1.16156E-02   2.23414E-05  -1.20169E-03  -5.40618E-07  -2.98572E-06   1.46345E-04
 0.263   3.89456E-03                 0.00000E+00  -5.50926E-07   1.27170E-05   1.16155E-02   2.24498E-05  -1.25075E-03  -2.21569E-06  -3.03052E-06   1.52589E-04
 0.273   3.89641E-03                 0.00000E+00   9.93975E-07   9.72181E-06   1.16153E-02   2.23422E-05  -1.30258E-03   1.56328E-06  -3.08018E-06   1.58374E-04
 0.283   3.89825E-03                 0.00000E+00   1.39445E-06   8.51668E-06   1.16144E-02   2.22089E-05  -1.35873E-03   1.62720E-06  -3.25645E-06   1.64565E-04
 0.293   3.90011E-03                 0.00000E+00  -3.09776E-07   1.33570E-05   1.16136E-02   2.22231E-05  -1.41124E-03  -2.04864E-06  -2.90414E-06   1.70723E-04
 0.303   3.90207E-03                 0.00000E+00  -3.01977E-07   1.38890E-05   1.16133E-02   2.22491E-05  -1.46121E-03  -1.19307E-06  -3.13142E-06   1.76807E-04
 0.313   3.90404E-03                 0.00000E+00   1.26614E-06   9.57762E-06   1.16122E-02   2.21365E-05  -1.51561E-03   2.22036E-06  -3.11414E-06   1.82577E-04
 0.323   3.90598E-03                 0.00000E+00   8.07571E-07   1.04280E-05   1.16104E-02   2.21151E-05  -1.57203E-03   9.55833E-07  -3.21264E-06   1.88745E-04
 0.333   3.90790E-03                 0.00000E+00  -7.37222E-07   1.43056E-05   1.16089E-02   2.21427E-05  -1.62451E-03  -2.22535E-06  -2.88154E-06   1.94857E-04
 0.343   3.90978E-03                 0.00000E+00  -2.10109E-07   1.21872E-05   1.16073E-02   2.19246E-05  -1.67549E-03  -1.07893E-06  -3.16514E-06   2.00836E-04
 0.354   3.91160E-03                 0.00000E+00   1.31886E-06   6.82297E-06   1.16047E-02   2.14403E-05  -1.73033E-03   2.02994E-06  -3.08441E-06   2.06513E-04
 0.364   3.91334E-03                 0.00000E+00   6.21349E-07   6.87848E-06   1.16012E-02   2.11930E-05  -1.78708E-03   1.35134E-06  -3.19339E-06   2.12441E-04
 0.374   3.91498E-03                 0.00000E+00  -1.22513E-06   9.26471E-06   1.15977E-02   2.12463E-05  -1.84078E-03  -1.73401E-06  -2.85334E-06   2.18413E-04
 0.384   3.91637E-03                 0.00000E+00  -1.08919E-06   5.34470E-06   1.15936E-02   2.10842E-05  -1.89212E-03  -1.88678E-06  -3.12678E-06   2.24304E-04
 0.394   3.91744E-03                 0.00000E+00   6.86484E-07  -3.62864E-06   1.15878E-02   2.03487E-05  -1.94569E-03   9.47490E-07  -3.02238E-06   2.29876E-04
 0.404   3.91820E-03                 0.00000E+00   8.40908E-07  -9.58522E-06   1.15804E-02   1.94890E-05  -2.00209E-03   2.12503E-06  -3.17102E-06   2.35466E-04
 0.414   3.91860E-03                 0.00000E+00  -1.04213E-06  -1.24629E-05   1.15718E-02   1.88712E-05  -2.05755E-03  -1.13075E-07  -2.78222E-06   2.41201E-04
 0.424   3.91843E-03                 0.00000E+00  -2.10996E-06  -2.02844E-05   1.15617E-02   1.81088E-05  -2.10985E-03  -2.29815E-06  -2.98859E-06   2.47020E-04
 0.434   3.91750E-03                 0.00000E+00  -1.08057E-06  -3.57493E-05   1.15492E-02   1.65552E-05  -2.16135E-03  -1.37145E-06  -2.87112E-06   2.52596E-04
 0.444   3.91580E-03                 0.00000E+00  -2.59931E-07  -5.27824E-05   1.15337E-02   1.44924E-05  -2.21498E-03   1.25940E-06  -3.11573E-06   2.57815E-04
 0.455   3.91333E-03                 0.00000E+00  -1.86684E-06  -6.66288E-05   1.15152E-02   1.27783E-05  -2.27024E-03   1.91145E-06  -2.70636E-06   2.62977E-04
 0.465   3.90993E-03                 0.00000E+00  -4.45659E-06  -8.18740E-05   1.14938E-02   1.16217E-05  -2.32397E-03  -2.31425E-07  -2.78591E-06   2.68313E-04
 0.475   3.90523E-03                 0.00000E+00  -5.10297E-06  -1.05972E-04   1.14688E-02   9.97116E-06  -2.37461E-03  -2.52582E-06  -2.55787E-06   2.73907E-04
 0.485   3.89893E-03                 0.00000E+00  -3.41129E-06  -1.39909E-04   1.14386E-02   6.79762E-06  -2.42379E-03  -2.13280E-06  -2.89567E-06   2.79238E-04
 0.495   3.89093E-03                 0.00000E+00  -2.16497E-06  -1.78215E-04   1.14026E-02   2.21138E-06  -2.47413E-03   3.28918E-07  -2.58520E-06   2.84270E-04
 0.505   3.88114E-03                 0.00000E+00  -3.49188E-06  -2.18152E-04   1.13604E-02  -2.75545E-06  -2.52589E-03   1.96027E-06  -2.59459E-06   2.88972E-04
 0.515   3.86928E-03                 0.00000E+00  -6.38133E-06  -2.64038E-04   1.13113E-02  -7.77846E-06  -2.57677E-03   6.28860E-07  -2.11719E-06   2.94085E-04
 0.525   3.85485E-03                 0.00000E+00  -8.24001E-06  -3.22471E-04   1.12543E-02  -1.37518E-05  -2.62420E-03  -2.28058E-06  -2.36463E-06   2.99384E-04
 0.535   3.83742E-03                 0.00000E+00  -8.52180E-06  -3.94743E-04   1.11877E-02  -2.18370E-05  -2.66806E-03  -3.82937E-06  -2.19909E-06   3.04835E-04
 0.545   3.81674E-03                 0.00000E+00  -9.54158E-06  -4.76564E-04   1.11103E-02  -3.17968E-05  -2.71025E-03  -2.23349E-06  -2.44771E-06   3.09426E-04
 0.556   3.79269E-03                 0.00000E+00  -1.36079E-05  -5.64404E-04   1.10211E-02  -4.21479E-05  -2.75251E-03   6.33368E-07  -1.91373E-06   3.13623E-04
 0.566   3.76506E-03                 0.00000E+00  -2.02737E-05  -6.60349E-04   1.09195E-02  -5.16433E-05  -2.79397E-03   1.70571E-06  -1.88349E-06   3.17380E-04
 0.576   3.73349E-03                 0.00000E+00  -2.65541E-05  -7.70432E-04   1.08041E-02  -6.09057E-05  -2.83182E-03  -7.83893E-07  -1.47262E-06   3.21958E-04
 0.586   3.69753E-03                 0.00000E+00  -3.01443E-05  -8.99233E-04   1.06735E-02  -7.19285E-05  -2.86362E-03  -4.63886E-06  -1.86354E-06   3.26606E-04
 0.596   3.65693E-03                 0.00000E+00  -3.17520E-05  -1.04642E-03   1.05259E-02  -8.63419E-05  -2.88972E-03  -6.50959E-06  -1.66310E-06   3.31505E-04
 0.606   3.61163E-03                 0.00000E+00  -3.42441E-05  -1.20952E-03   1.03597E-02  -1.03855E-04  -2.91259E-03  -4.40265E-06  -1.81020E-06   3.35107E-04
 0.616   3.56174E-03                 0.00000E+00  -3.98584E-05  -1.38808E-03   1.01737E-02  -1.22929E-04  -2.93439E-03  -7.63981E-07  -1.16569E-06   3.38502E-04
 0.626   3.50724E-03                 0.00000E+00  -4.84476E-05  -1.58509E-03   9.96637E-03  -1.42490E-04  -2.95403E-03   5.98188E-07  -1.21123E-06   3.41279E-04
 0.636   3.44806E-03                 0.00000E+00  -5.87206E-05  -1.80373E-03   9.73613E-03  -1.63157E-04  -2.96767E-03  -2.81339E-06  -1.05431E-06   3.45261E-04
 0.646   3.38391E-03                 0.00000E+00  -7.09352E-05  -2.04332E-03   9.48129E-03  -1.85970E-04  -2.97093E-03  -8.32312E-06  -1.76903E-06   3.48658E-04
 0.657   3.31470E-03                 0.00000E+00  -8.76786E-05  -2.29888E-03   9.20048E-03  -2.10052E-04  -2.96234E-03  -1.15049E-05  -1.90978E-06   3.51700E-04
 0.667   3.24036E-03                 0.00000E+00  -1.11783E-04  -2.56437E-03   8.89234E-03  -2.31260E-04  -2.94274E-03  -9.29554E-06  -2.24338E-06   3.51567E-04
 0.677   3.16113E-03                 0.00000E+00  -1.43056E-04  -2.83541E-03   8.55613E-03  -2.43952E-04  -2.91290E-03  -4.89328E-06  -1.94536E-06   3.50077E-04
 0.687   3.07680E-03                 0.00000E+00  -1.77915E-04  -3.10758E-03   8.19144E-03  -2.44241E-04  -2.86922E-03  -3.78271E-06  -2.23934E-06   3.46388E-04
 0.697   2.98686E-03                 0.00000E+00  -2.11263E-04  -3.37357E-03   7.79925E-03  -2.31888E-04  -2.80471E-03  -9.54311E-06  -2.63368E-06   3.43516E-04
 0.707   2.89024E-03                 0.00000E+00  -2.39413E-04  -3.62200E-03   7.38153E-03  -2.08748E-04  -2.71284E-03  -1.77054E-05  -3.21563E-06   3.38855E-04
 0.717   2.78660E-03                 0.00000E+00  -2.59557E-04  -3.84161E-03   6.94182E-03  -1.75424E-04  -2.59424E-03  -2.06535E-05  -3.10865E-06   3.33020E-04
 0.727   2.67659E-03                 0.00000E+00  -2.67860E-04  -4.02451E-03   6.48479E-03  -1.30769E-04  -2.45661E-03  -1.44634E-05  -2.03375E-06   3.22852E-04
 0.737   2.56147E-03                 0.00000E+00  -2.59216E-04  -4.16364E-03   6.01747E-03  -7.54621E-05  -2.30961E-03  -5.78212E-06  -9.48714E-07   3.11780E-04
 0.747   2.44075E-03                 0.00000E+00  -2.32596E-04  -4.24569E-03   5.54931E-03  -1.63403E-05  -2.15646E-03  -3.96380E-06   1.82802E-07   2.99977E-04
 0.758   2.31240E-03                 0.00000E+00  -1.94565E-04  -4.25397E-03   5.09156E-03   3.69770E-05  -1.99531E-03  -9.23255E-06   2.70010E-07   2.89465E-04
 0.768   2.17579E-03                 0.00000E+00  -1.55494E-04  -4.18300E-03   4.65410E-03   8.08887E-05  -1.82799E-03  -9.65501E-06   1.68858E-06   2.75601E-04
 0.778   2.03415E-03                 0.00000E+00  -1.17198E-04  -4.04468E-03   4.24382E-03   1.21837E-04  -1.66604E-03   1.10916E-06   2.60506E-06   2.57582E-04
 0.788   1.88943E-03                 0.00000E+00  -7.29136E-05  -3.84414E-03   3.86707E-03   1.63073E-04  -1.51965E-03   1.01059E-05   4.49156E-06   2.37496E-04
 0.798   1.74186E-03                 0.00000E+00  -2.21663E-05  -3.57742E-03   3.53436E-03   1.92950E-04  -1.38959E-03   6.48471E-06   4.29672E-06   2.19979E-04
 0.808   1.60064E-03                 0.00000E+00   2.23218E-05  -3.27303E-03   3.25846E-03   1.98130E-04  -1.28332E-03   4.27070E-06   5.59146E-06   2.03447E-04
 0.818   1.47876E-03                 0.00000E+00   5.61259E-05  -2.97705E-03   3.04320E-03   1.84440E-04  -1.21876E-03   1.23213E-05   4.66619E-06   1.84500E-04
 0.828   1.37778E-03                 0.00000E+00   7.79786E-05  -2.69291E-03   2.88927E-03   1.58754E-04  -1.19380E-03   9.78030E-06   4.24726E-06   1.68256E-04
 0.838   1.29810E-03                 0.00000E+00   6.69562E-05  -2.43751E-03   2.79294E-03   1.36021E-04  -1.17369E-03   3.72658E-06   2.24829E-06   1.51819E-04
 0.848   1.21367E-03                 0.00000E+00   4.47481E-05  -2.15469E-03   2.71301E-03   1.68747E-04  -1.09821E-03   1.05991E-05   3.50048E-06   1.31197E-04
 0.859   1.05474E-03                 0.00000E+00   7.09963E-05  -1.48573E-03   2.61213E-03   2.56374E-04  -9.48505E-04   2.96447E-05   1.16603E-05   1.00798E-04
 0.869   8.93526E-04                 0.00000E+00   8.61322E-05  -1.61451E-04   2.51195E-03   2.69954E-04  -8.74295E-04   5.21103E-05   2.09144E-05   4.12640E-05
 0.879   9.18667E-04                 0.00000E+00  -7.43989E-06   1.16946E-03   2.31817E-03   1.17714E-04  -9.15765E-04   2.25398E-05   1.09021E-05  -2.87208E-05
 0.889   8.17671E-04                 0.00000E+00  -7.49773E-05   1.43119E-03   1.80662E-03  -4.54451E-05  -8.33525E-04  -1.68284E-05  -5.00388E-06  -4.84934E-05
 0.899   4.95781E-04                 0.00000E+00  -5.22285E-05   8.77732E-04   1.06573E-03  -7.28834E-05  -5.44646E-04  -1.46599E-05  -7.17743E-06  -3.22284E-05
 0.909   2.11553E-04                 0.00000E+00  -2.70086E-05   3.64634E-04   4.55145E-04  -3.82343E-05  -2.45351E-04  -8.99598E-06  -4.44571E-06  -1.36584E-05
 0.919   6.19778E-05                 0.00000E+00  -8.19779E-06   9.56644E-05   1.38927E-04  -1.26269E-05  -7.66062E-05  -2.65447E-06  -1.42370E-06  -3.83234E-06
 0.929   1.41117E-05                 0.00000E+00  -1.72120E-06   1.68757E-05   3.46017E-05  -1.49696E-06  -1.74414E-05  -4.13883E-07  -2.47035E-07  -7.48604E-07
 0.939   3.56864E-06                 0.00000E+00  -4.79281E-07   3.21334E-06   9.38413E-06   3.51722E-07  -3.98006E-06  -1.01208E-07  -4.79369E-08  -1.48812E-07
 0.949   9.91559E-07                 0.00000E+00  -1.15147E-07   7.54971E-07   2.64627E-06   9.22165E-08  -1.11887E-06  -2.37030E-08  -1.05002E-08  -4.08261E-08
 0.960   2.34705E-07                 0.00000E+00  -1.54862E-08   1.74568E-07   6.13826E-07  -1.87250E-08  -2.96285E-07  -3.37932E-09  -1.62522E-09  -1.15293E-08
 0.970   3.59816E-08                 0.00000E+00   7.22501E-10   2.55230E-08   9.05994E-08  -1.13691E-08  -5.15570E-08   1.42975E-10   6.14555E-11  -2.11458E-09
 0.980   3.43505E-09                 0.00000E+00   2.07950E-10   2.19739E-09   8.62506E-09  -1.26073E-09  -5.02942E-09   3.66273E-11   2.75327E-11  -2.14519E-10
 0.990   1.36744E-10                 0.00000E+00   3.49076E-11   1.23449E-10   2.80045E-10  -1.21064E-10  -2.42100E-10   5.28816E-12   4.78784E-12  -9.29639E-12
 1.000   1.26029E-12                 0.00000E+00   7.54946E-17   1.18928E-14   3.49448E-12  -1.47951E-14  -1.44102E-12  -2.85598E-28   9.25820E-16  -8.19213E-14

 B^s_sinmn; fsq_total:  5.6077E-25
                       MPOL--->             0             1             2             0             1             2             0             1             2
RADIUS        RMS      NTOR--->            -1            -1            -1             0             0             0             1             1             1
 0.010   8.50557E-04                 0.00000E+00   6.66441E-04  -8.60903E-04   0.00000E+00  -1.32706E-03  -1.67709E-04  -2.13996E-06   1.43312E-03   1.21766E-03
 0.020   7.18274E-04                 0.00000E+00   1.11172E-03  -1.26735E-03   0.00000E+00  -7.44420E-04  -7.53693E-05  -1.23985E-06   1.10881E-03   1.08974E-04
 0.030   8.50599E-04                 0.00000E+00   1.29138E-03  -1.90210E-03   0.00000E+00  -4.98349E-04  -5.06969E-05   3.58479E-07   9.87462E-04   3.19091E-06
 0.040   1.02613E-03                 0.00000E+00   1.37007E-03  -2.54371E-03   0.00000E+00  -4.51570E-04  -5.18004E-05   1.63121E-06   9.57825E-04   6.97947E-05
 0.051   1.22057E-03                 0.00000E+00   1.42339E-03  -3.21022E-03   0.00000E+00  -4.28551E-04  -5.80923E-05   2.91549E-06   9.39695E-04   8.00969E-05
 0.061   1.42093E-03                 0.00000E+00   1.47008E-03  -3.86760E-03   0.00000E+00  -4.16887E-04  -6.57710E-05   4.26038E-06   9.29181E-04   1.01950E-04
 0.071   1.62565E-03                 0.00000E+00   1.51761E-03  -4.52159E-03   0.00000E+00  -4.14041E-04  -7.52794E-05   5.75569E-06   9.19912E-04   1.15163E-04
 0.081   1.83570E-03                 0.00000E+00   1.56233E-03  -5.18277E-03   0.00000E+00  -4.11901E-04  -8.22189E-05   7.29660E-06   9.12527E-04   1.30493E-04
 0.091   2.05134E-03                 0.00000E+00   1.61522E-03  -5.85194E-03   0.00000E+00  -4.11291E-04  -9.25150E-05   9.11070E-06   9.05206E-04   1.42988E-04
 0.101   2.26706E-03                 0.00000E+00   1.66866E-03  -6.51605E-03   0.00000E+00  -4.13532E-04  -9.93242E-05   1.10293E-05   8.98521E-04   1.55800E-04
 0.111   2.48629E-03                 0.00000E+00   1.72656E-03  -7.18661E-03   0.00000E+00  -4.14514E-04  -1.07224E-04   1.31583E-05   8.91515E-04   1.66888E-04
 0.121   2.71023E-03                 0.00000E+00   1.79126E-03  -7.86753E-03   0.00000E+00  -4.16415E-04  -1.16298E-04   1.55679E-05   8.84648E-04   1.77800E-04
 0.131   2.93134E-03                 0.00000E+00   1.85870E-03  -8.53719E-03   0.00000E+00  -4.19969E-04  -1.20833E-04   1.81755E-05   8.77527E-04   1.87420E-04
 0.141   3.15723E-03                 0.00000E+00   1.93150E-03  -9.21904E-03   0.00000E+00  -4.22537E-04  -1.30201E-04   2.10505E-05   8.69990E-04   1.96303E-04
 0.152   3.38475E-03                 0.00000E+00   2.01021E-03  -9.90362E-03   0.00000E+00  -4.25173E-04  -1.36264E-04   2.42339E-05   8.62938E-04   2.04041E-04
 0.162   3.61132E-03                 0.00000E+00   2.09368E-03  -1.05835E-02   0.00000E+00  -4.28089E-04  -1.41509E-04   2.77128E-05   8.55998E-04   2.10844E-04
 0.172   3.84248E-03                 0.00000E+00   2.18255E-03  -1.12757E-02   0.00000E+00  -4.30012E-04  -1.50976E-04   3.15051E-05   8.49289E-04   2.16455E-04
 0.182   4.07271E-03                 0.00000E+00   2.27585E-03  -1.19638E-02   0.00000E+00  -4.32016E-04  -1.55517E-04   3.56136E-05   8.42894E-04   2.21278E-04
 0.192   4.30241E-03                 0.00000E+00   2.37431E-03  -1.26489E-02   0.00000E+00  -4.33923E-04  -1.61154E-04   4.00874E-05   8.36052E-04   2.24939E-04
 0.202   4.53674E-03                 0.00000E+00   2.47947E-03  -1.33466E-02   0.00000E+00  -4.35279E-04  -1.70308E-04   4.49820E-05   8.29079E-04   2.27507E-04
