
 p_cosmn; fsq_total:  2.8829E-25
                       MPOL--->             0             1             2             0             1             2             0             1             2
RADIUS        RMS      NTOR--->            -1            -1            -1             0             0             0             1             1             1
 0.010   3.87590E-03                 0.00000E+00   1.40156E-07   6.37064E-07   1.16276E-02   2.14085E-05  -5.40089E-05  -2.88031E-07  -1.87914E-06   7.84887E-06
 0.020   3.87425E-03                 0.00000E+00   2.24659E-07  -1.47959E-06   1.16223E-02   2.16843E-05  -9.71370E-05   1.42110E-07  -3.14560E-06   1.24753E-05
 0.030   3.87367E-03                 0.00000E+00   7.29117E-07   1.38911E-06   1.16201E-02   2.18996E-05  -1.40751E-04  -2.99230E-07  -2.87154E-06   1.76191E-05
 0.040   3.87422E-03                 0.00000E+00   3.59431E-07   4.65459E-07   1.16211E-02   2.13964E-05  -1.84938E-04   4.82365E-07  -3.31196E-06   2.29820E-05
 0.051   3.87431E-03                 0.00000E+00  -2.93717E-08  -1.71346E-07   1.16206E-02   2.23415E-05  -2.29694E-04  -6.20270E-07  -2.91307E-06   2.84328E-05
 0.061   3.87441E-03                 0.00000E+00   1.33478E-06   1.48310E-06   1.16199E-02   2.16183E-05  -2.74064E-04   6.60885E-07  -3.23224E-06   3.39797E-05
 0.071   3.87499E-03                 0.00000E+00  -1.79137E-07   1.14132E-06   1.16205E-02   2.16684E-05  -3.20579E-04  -4.63758E-07  -3.09324E-06   3.95293E-05
 0.081   3.87531E-03                 0.00000E+00   3.65138E-07   6.47967E-07   1.16201E-02   2.21009E-05  -3.64613E-04  -7.31219E-08  -3.06892E-06   4.52418E-05
 0.091   3.87568E-03                 0.00000E+00   8.81813E-07   1.60086E-06   1.16196E-02   2.18774E-05  -4.12429E-04   8.31210E-07  -3.19578E-06   5.08970E-05
 0.101   3.87642E-03                 0.00000E+00   2.52281E-07   3.06993E-06   1.16201E-02   2.19181E-05  -4.57814E-04  -1.37158E-06  -3.11927E-06   5.67803E-05
 0.111   3.87704E-03                 0.00000E+00   8.02962E-07   1.12566E-06   1.16200E-02   2.12007E-05  -5.03773E-04   1.18338E-06  -3.11255E-06   6.26253E-05
 0.121   3.87761E-03                 0.00000E+00  -2.73117E-07   2.66402E-06   1.16195E-02   2.17932E-05  -5.52493E-04  -1.51015E-07  -3.36071E-06   6.86170E-05
 0.131   3.87842E-03                 0.00000E+00   2.16112E-07   4.35437E-06   1.16197E-02   2.22756E-05  -5.97235E-04  -1.17587E-06  -2.97760E-06   7.47384E-05
 0.141   3.87923E-03                 0.00000E+00   1.54290E-06   2.52496E-06   1.16195E-02   2.16573E-05  -6.45711E-04   1.69049E-06  -3.25141E-06   8.06024E-05
 0.152   3.88012E-03                 0.00000E+00   2.92289E-07   4.32851E-06   1.16192E-02   2.19268E-05  -6.96258E-04  -5.77730E-07  -2.96248E-06   8.64823E-05
 0.162   3.88115E-03                 0.00000E+00  -3.81044E-08   5.08825E-06   1.16193E-02   2.22670E-05  -7.42945E-04  -1.34865E-06  -2.94434E-06   9.22457E-05
 0.172   3.88212E-03                 0.00000E+00   6.38941E-07   3.07576E-06   1.16189E-02   2.20149E-05  -7.92859E-04   1.82125E-06  -3.03042E-06   9.80583E-05
 0.182   3.88316E-03                 0.00000E+00   8.86434E-08   5.55318E-06   1.16183E-02   2.24045E-05  -8.44455E-04   5.64057E-08  -3.26804E-06   1.04107E-04
 0.192   3.88441E-03                 0.00000E+00   4.02078E-07   7.28174E-06   1.16185E-02   2.24736E-05  -8.91884E-04  -1.95719E-06  -2.91593E-06   1.10363E-04
 0.202   3.88562E-03                 0.00000E+00   1.67761E-06   3.73712E-06   1.16182E-02   2.16512E-05  -9.41252E-04   1.04869E-06  -3.09167E-06   1.16201E-04
 0.212   3.88680E-03                 0.00000E+00   6.63767E-07   4.75886E-06   1.16172E-02   2.15256E-05  -9.94925E-04   1.54512E-06  -3.03390E-06   1.22129E-04
 0.222   3.88822E-03                 0.00000E+00  -9.76954E-07   9.65510E-06   1.16170E-02   2.24138E-05  -1.04582E-03  -1.67392E-06  -3.11960E-06   1.28159E-04
 0.232   3.88975E-03                 0.00000E+00  -9.10501E-08   8.44294E-06   1.16170E-02   2.27569E-05  -1.09426E-03  -1.17659E-06  -2.92871E-06   1.34350E-04
 0.242   3.89113E-03                 0.00000E+00   1.43087E-06   4.52582E-06   1.16161E-02   2.23911E-05  -1.14655E-03   1.94134E-06  -3.16877E-06   1.40220E-04
 0.253   3.89250E-03                 0.00000E+00   8.97441E-07   6.22841E-06   1.16146E-02   2.22272E-05  -1.20118E-03   1.05009E-06  -3.03717E-06   1.46396E-04
 0.263   3.89403E-03                 0.00000E+00   5.17883E-08   8.88821E-06   1.16137E-02   2.20915E-05  -1.25264E-03  -1.96654E-06  -3.08879E-06   1.52538E-04
 0.273   3.89555E-03                 0.00000E+00   6.18102E-07   6.09164E-06   1.16127E-02   2.14129E-05  -1.30247E-03  -1.27020E-06  -2.94726E-06   1.58754E-04
 0.283   3.89697E-03                 0.00000E+00   8.25068E-07   3.36848E-06   1.16109E-02   2.09459E-05  -1.35552E-03   1.77476E-06  -3.16389E-06   1.64486E-04
 0.293   3.89847E-03                 0.00000E+00  -6.07984E-07   6.30659E-06   1.16087E-02   2.16162E-05  -1.41088E-03   1.65288E-06  -3.06562E-06   1.70542E-04
 0.303   3.90011E-03                 0.00000E+00  -1.66447E-06   1.01089E-05   1.16070E-02   2.28112E-05  -1.46400E-03  -1.29162E-06  -3.11233E-06   1.76607E-04
 0.313   3.90169E-03                 0.00000E+00  -3.07464E-07   7.20730E-06   1.16052E-02   2.30421E-05  -1.51462E-03  -2.19470E-06  -2.96724E-06   1.82984E-04
 0.323   3.90299E-03                 0.00000E+00   1.97925E-06  -1.05245E-07   1.16021E-02   2.19789E-05  -1.56669E-03   3.52842E-07  -3.09780E-06   1.88853E-04
 0.333   3.90406E-03                 0.00000E+00   2.53462E-06  -5.09297E-06   1.15977E-02   2.05624E-05  -1.62203E-03   2.34744E-06  -3.02273E-06   1.94894E-04
 0.343   3.90498E-03                 0.00000E+00   9.79582E-07  -6.32780E-06   1.15924E-02   1.95634E-05  -1.67777E-03   9.64097E-07  -3.05486E-06   2.00773E-04
 0.354   3.90572E-03                 0.00000E+00  -5.41044E-07  -9.58728E-06   1.15868E-02   1.87224E-05  -1.73083E-03  -1.85234E-06  -2.93560E-06   2.07103E-04
 0.364   3.90606E-03                 0.00000E+00  -8.07759E-07  -1.81414E-05   1.15799E-02   1.75858E-05  -1.78186E-03  -2.25447E-06  -3.00371E-06   2.12960E-04
 0.374   3.90594E-03                 0.00000E+00  -8.44210E-07  -2.85029E-05   1.15713E-02   1.64787E-05  -1.83393E-03   1.16559E-07  -2.97532E-06   2.18780E-04
 0.384   3.90547E-03                 0.00000E+00  -2.15324E-06  -3.53274E-05   1.15610E-02   1.62398E-05  -1.88839E-03   2.30768E-06  -2.99210E-06   2.24050E-04
 0.394   3.90474E-03                 0.00000E+00  -4.25162E-06  -3.90420E-05   1.15495E-02   1.70824E-05  -1.94340E-03   1.62510E-06  -2.89866E-06   2.29785E-04
 0.404   3.90362E-03                 0.00000E+00  -4.86994E-06  -4.61014E-05   1.15369E-02   1.80021E-05  -1.99639E-03  -1.04621E-06  -2.86266E-06   2.35511E-04
 0.414   3.90183E-03                 0.00000E+00  -2.60210E-06  -6.21627E-05   1.15224E-02   1.75024E-05  -2.04704E-03  -2.79354E-06  -2.84140E-06   2.41748E-04
 0.424   3.89913E-03                 0.00000E+00   1.44629E-06  -8.66205E-05   1.15048E-02   1.47961E-05  -2.09746E-03  -1.70554E-06  -2.81203E-06   2.47520E-04
 0.434   3.89541E-03                 0.00000E+00   4.44303E-06  -1.14423E-04   1.14834E-02   1.03382E-05  -2.14986E-03   1.00452E-06  -2.75469E-06   2.53337E-04
 0.444   3.89062E-03                 0.00000E+00   4.62941E-06  -1.42554E-04   1.14580E-02   5.15444E-06  -2.20423E-03   2.67122E-06  -2.59478E-06   2.58695E-04
 0.455   3.88464E-03                 0.00000E+00   2.59776E-06  -1.73540E-04   1.14286E-02  -1.73033E-07  -2.25842E-03   1.58597E-06  -2.53693E-06   2.64544E-04
 0.465   3.87717E-03                 0.00000E+00   4.22094E-07  -2.12601E-04   1.13946E-02  -5.95985E-06  -2.31011E-03  -1.25786E-06  -2.43864E-06   2.70333E-04
 0.475   3.86790E-03                 0.00000E+00  -9.12437E-07  -2.62068E-04   1.13551E-02  -1.27530E-05  -2.35866E-03  -3.40642E-06  -2.52661E-06   2.76456E-04
 0.485   3.85659E-03                 0.00000E+00  -2.43684E-06  -3.18929E-04   1.13090E-02  -2.04282E-05  -2.40536E-03  -2.93660E-06  -2.40411E-06   2.81836E-04
 0.495   3.84317E-03                 0.00000E+00  -5.98881E-06  -3.78456E-04   1.12557E-02  -2.79003E-05  -2.45197E-03  -3.05133E-07  -2.40246E-06   2.86869E-04
 0.505   3.82758E-03                 0.00000E+00  -1.20884E-05  -4.38608E-04   1.11951E-02  -3.39438E-05  -2.49906E-03   2.29051E-06  -2.09354E-06   2.91140E-04
 0.515   3.80979E-03                 0.00000E+00  -1.88751E-05  -5.02477E-04   1.11270E-02  -3.82542E-05  -2.54540E-03   2.51034E-06  -2.09328E-06   2.95761E-04
 0.525   3.78964E-03                 0.00000E+00  -2.33215E-05  -5.75874E-04   1.10510E-02  -4.20663E-05  -2.58893E-03  -6.59203E-08  -1.84752E-06   3.00624E-04
 0.535   3.76695E-03                 0.00000E+00  -2.31524E-05  -6.64232E-04   1.09664E-02  -4.75613E-05  -2.62843E-03  -3.73530E-06  -2.02160E-06   3.06328E-04
 0.545   3.74156E-03                 0.00000E+00  -1.85446E-05  -7.69604E-04   1.08720E-02  -5.68304E-05  -2.66459E-03  -5.83382E-06  -1.74375E-06   3.12079E-04
 0.556   3.71346E-03                 0.00000E+00  -1.17008E-05  -8.91441E-04   1.07666E-02  -7.08262E-05  -2.69964E-03  -4.79574E-06  -1.80097E-06   3.17873E-04
 0.566   3.68262E-03                 0.00000E+00  -5.54761E-06  -1.02881E-03   1.06489E-02  -8.94067E-05  -2.73591E-03  -1.32158E-06  -1.24363E-06   3.23205E-04
 0.576   3.64905E-03                 0.00000E+00  -2.01284E-06  -1.18255E-03   1.05179E-02  -1.11841E-04  -2.77414E-03   2.11196E-06  -1.24264E-06   3.28587E-04
 0.586   3.61270E-03                 0.00000E+00  -1.60427E-06  -1.35519E-03   1.03723E-02  -1.37820E-04  -2.81298E-03   2.79056E-06  -7.88928E-07   3.34281E-04
 0.596   3.57347E-03                 0.00000E+00  -4.03946E-06  -1.54958E-03   1.02109E-02  -1.67539E-04  -2.84949E-03  -1.12128E-07  -1.22428E-06   3.40612E-04
 0.606   3.53124E-03                 0.00000E+00  -9.82321E-06  -1.76654E-03   1.00322E-02  -2.01336E-04  -2.88085E-03  -5.19305E-06  -1.12090E-06   3.47348E-04
 0.616   3.48587E-03                 0.00000E+00  -2.07253E-05  -2.00410E-03   9.83469E-03  -2.38408E-04  -2.90547E-03  -9.26296E-06  -1.81049E-06   3.53524E-04
 0.626   3.43727E-03                 0.00000E+00  -3.96324E-05  -2.25801E-03   9.61674E-03  -2.76272E-04  -2.92342E-03  -1.00146E-05  -1.58197E-06   3.58528E-04
 0.636   3.38528E-03                 0.00000E+00  -6.83738E-05  -2.52390E-03   9.37685E-03  -3.10690E-04  -2.93500E-03  -7.10063E-06  -2.11700E-06   3.61275E-04
 0.646   3.32977E-03                 0.00000E+00  -1.06956E-04  -2.79801E-03   9.11375E-03  -3.37120E-04  -2.93949E-03  -3.40768E-06  -1.81693E-06   3.62559E-04
 0.657   3.27035E-03                 0.00000E+00  -1.52437E-04  -3.07693E-03   8.82645E-03  -3.51927E-04  -2.93337E-03  -2.42975E-06  -2.65986E-06   3.62100E-04
 0.667   3.20666E-03                 0.00000E+00  -2.00213E-04  -3.35707E-03   8.51478E-03  -3.53793E-04  -2.91145E-03  -7.00304E-06  -2.87185E-06   3.61805E-04
 0.677   3.13816E-03                 0.00000E+00  -2.45121E-04  -3.63335E-03   8.17905E-03  -3.43277E-04  -2.86813E-03  -1.56319E-05  -4.00799E-06   3.60534E-04
 0.687   3.06461E-03                 0.00000E+00  -2.83388E-04  -3.89896E-03   7.82081E-03  -3.21891E-04  -2.80108E-03  -2.42875E-05  -4.02023E-06   3.59311E-04
 0.697   2.98589E-03                 0.00000E+00  -3.12296E-04  -4.14628E-03   7.44210E-03  -2.90372E-04  -2.71190E-03  -2.71129E-05  -4.13127E-06   3.55285E-04
 0.707   2.90253E-03                 0.00000E+00  -3.30062E-04  -4.36856E-03   7.04626E-03  -2.48486E-04  -2.60669E-03  -2.23686E-05  -3.07719E-06   3.49640E-04
 0.717   2.81486E-03                 0.00000E+00  -3.34469E-04  -4.55918E-03   6.63709E-03  -1.96057E-04  -2.49147E-03  -1.27931E-05  -2.25759E-06   3.40735E-04
 0.727   2.72272E-03                 0.00000E+00  -3.23639E-04  -4.70942E-03   6.22024E-03  -1.35254E-04  -2.36968E-03  -6.18175E-06  -1.50835E-06   3.32105E-04
 0.737   2.62417E-03                 0.00000E+00  -2.97986E-04  -4.80610E-03   5.80216E-03  -7.14412E-05  -2.23929E-03  -7.42169E-06  -1.16014E-06   3.23150E-04
 0.747   2.51604E-03                 0.00000E+00  -2.62217E-04  -4.83260E-03   5.39040E-03  -1.04897E-05  -2.09651E-03  -1.45373E-05  -9.68128E-07   3.15139E-04
 0.758   2.39624E-03                 0.00000E+00  -2.23318E-04  -4.78025E-03   4.99145E-03   4.57806E-05  -1.94109E-03  -1.70968E-05   5.25324E-07   3.03854E-04
 0.768   2.26704E-03                 0.00000E+00  -1.82458E-04  -4.65768E-03   4.61085E-03   1.01343E-04  -1.78178E-03  -7.42428E-06   2.11233E-06   2.88032E-04
 0.778   2.13164E-03                 0.00000E+00  -1.34993E-04  -4.47575E-03   4.25284E-03   1.60685E-04  -1.63099E-03   9.40127E-06   4.59254E-06   2.67751E-04
 0.788   1.99003E-03                 0.00000E+00  -7.40902E-05  -4.23059E-03   3.92350E-03   2.19086E-04  -1.49507E-03   1.72240E-05   4.93539E-06   2.47637E-04
 0.798   1.84616E-03                 0.00000E+00  -1.63933E-06  -3.92793E-03   3.63634E-03   2.56799E-04  -1.37949E-03   1.05482E-05   6.20158E-06   2.32530E-04
 0.808   1.71404E-03                 0.00000E+00   6.83692E-05  -3.60718E-03   3.40849E-03   2.55211E-04  -1.30153E-03   7.07733E-06   6.47389E-06   2.19342E-04
 0.818   1.60563E-03                 0.00000E+00   1.14289E-04  -3.30706E-03   3.24431E-03   2.22019E-04  -1.27909E-03   1.66445E-05   6.76137E-06   2.03567E-04
 0.828   1.51883E-03                 0.00000E+00   1.28964E-04  -3.02874E-03   3.13444E-03   1.79301E-04  -1.29623E-03   1.59549E-05   2.99316E-06   1.85727E-04
 0.838   1.44903E-03                 0.00000E+00   9.66748E-05  -2.78249E-03   3.06747E-03   1.52001E-04  -1.29761E-03   4.67638E-07   1.02127E-06   1.71610E-04
 0.848   1.38576E-03                 0.00000E+00   5.34874E-05  -2.57390E-03   3.01349E-03   1.77002E-04  -1.23238E-03   1.67943E-06   1.91098E-06   1.54903E-04
 0.859   1.25725E-03                 0.00000E+00   7.19237E-05  -2.11266E-03   2.91851E-03   2.74309E-04  -1.07103E-03   2.37588E-05   9.41043E-06   1.29734E-04
 0.869   1.05118E-03                 0.00000E+00   1.45229E-04  -1.00895E-03   2.81163E-03   3.45225E-04  -9.33400E-04   5.39418E-05   2.14480E-05   8.21481E-05
 0.879   9.85077E-04                 0.00000E+00   1.02183E-04   6.19306E-04   2.71198E-03   2.65728E-04  -9.54078E-04   5.66477E-05   2.15255E-05   5.74880E-07
 0.889   1.04343E-03                 0.00000E+00  -5.36150E-05   1.72901E-03   2.40786E-03   5.97626E-05  -1.00056E-03   5.20734E-06   4.33565E-06  -6.20343E-05
 0.899   8.23767E-04                 0.00000E+00  -9.61730E-05   1.54053E-03   1.73140E-03  -9.08316E-05  -8.45200E-04  -2.60581E-05  -9.30535E-06  -6.09504E-05
 0.909   4.42780E-04                 0.00000E+00  -5.44533E-05   8.00652E-04   9.26921E-04  -8.93926E-05  -5.01868E-04  -1.54616E-05  -7.86113E-06  -3.37063E-05
 0.919   1.68233E-04                 0.00000E+00  -2.44976E-05   2.96580E-04   3.52306E-04  -3.93553E-05  -2.00622E-04  -7.79591E-06  -4.01567E-06  -1.29315E-05
 0.929   4.13378E-05                 0.00000E+00  -6.32228E-06   6.74920E-05   8.87428E-05  -1.13902E-05  -5.25728E-05  -2.02907E-06  -1.09214E-06  -3.14951E-06
 0.939   6.53035E-06                 0.00000E+00  -8.86241E-07   8.51131E-06   1.52691E-05  -1.59102E-06  -8.63860E-06  -2.13945E-07  -1.40707E-07  -4.61107E-07
 0.949   9.99260E-07                 0.00000E+00  -1.74726E-07   8.78506E-07   2.68541E-06   2.77035E-07  -9.44314E-07  -2.97789E-08  -1.81784E-08  -5.70650E-08
 0.960   2.11985E-07                 0.00000E+00  -5.40485E-08   1.47396E-07   5.85084E-07   1.66507E-07  -9.73444E-08  -1.18510E-08  -5.38123E-09  -1.00375E-08
 0.970   2.99002E-08                 0.00000E+00  -6.94364E-09   1.30876E-08   8.42550E-08   2.29187E-08  -1.40740E-08  -1.36079E-09  -7.15954E-10  -1.44325E-09
 0.980   3.58484E-09                 0.00000E+00   1.17992E-10   2.66139E-09   9.02647E-09  -1.08380E-09  -5.08660E-09  -4.47772E-11   3.30054E-11  -1.86512E-10
 0.990   1.29438E-09                 0.00000E+00   4.43794E-10   1.33357E-09   1.05045E-09  -2.13543E-09  -2.72521E-09   7.77066E-11   6.66670E-11  -5.24110E-11
 1.000   3.82632E-11                 0.00000E+00  -2.29206E-15  -3.61073E-13  -1.06095E-10   4.49189E-13   4.37502E-11  -2.28479E-27  -2.81084E-14   2.48718E-12

 B^s_sinmn; fsq_total:  2.8829E-25
                       MPOL--->             0             1             2             0             1             2             0             1             2
RADIUS        RMS      NTOR--->            -1            -1            -1             0             0             0             1             1             1
 0.010   9.42006E-04                 0.00000E+00   3.24286E-04  -8.82064E-04   0.00000E+00  -1.57531E-03  -8.21246E-04   9.58233E-07  -8.83600E-04   1.77944E-03
 0.020   6.79149E-04                 0.00000E+00   7.12595E-04  -1.45262E-03   0.00000E+00  -1.12266E-03  -1.35006E-04  -3.05771E-07   4.28528E-04   2.66555E-04
 0.030   9.54360E-04                 0.00000E+00   9.17329E-04  -2.43692E-03   0.00000E+00  -8.88905E-04  -5.57993E-06  -1.28595E-06   7.91629E-04   1.62160E-05
 0.040   1.23020E-03                 0.00000E+00   1.01400E-03  -3.34771E-03   0.00000E+00  -8.20042E-04  -2.84686E-05  -1.27889E-06   8.40537E-04   7.39342E-05
 0.051   1.49843E-03                 0.00000E+00   1.07974E-03  -4.20132E-03   0.00000E+00  -7.87267E-04  -2.53492E-05  -1.31617E-06   8.74327E-04   7.67669E-05
 0.061   1.77739E-03                 0.00000E+00   1.13899E-03  -5.07470E-03   0.00000E+00  -7.68951E-04  -3.43902E-05  -1.06731E-06   8.83491E-04   9.59513E-05
 0.071   2.05518E-03                 0.00000E+00   1.19839E-03  -5.93221E-03   0.00000E+00  -7.62667E-04  -3.37811E-05  -6.83850E-07   8.90358E-04   1.06035E-04
 0.081   2.33682E-03                 0.00000E+00   1.25710E-03  -6.79598E-03   0.00000E+00  -7.56494E-04  -4.12909E-05  -1.14261E-07   8.90434E-04   1.18753E-04
 0.091   2.62442E-03                 0.00000E+00   1.32534E-03  -7.67149E-03   0.00000E+00  -7.54074E-04  -4.08646E-05   7.51571E-07   8.90532E-04   1.28460E-04
 0.101   2.91561E-03                 0.00000E+00   1.39723E-03  -8.55414E-03   0.00000E+00  -7.56529E-04  -4.45420E-05   1.85367E-06   8.87659E-04   1.38067E-04
 0.111   3.20479E-03                 0.00000E+00   1.47110E-03  -9.42840E-03   0.00000E+00  -7.55759E-04  -4.75313E-05   3.11421E-06   8.84481E-04   1.45906E-04
 0.121   3.49643E-03                 0.00000E+00   1.55650E-03  -1.03068E-02   0.00000E+00  -7.55551E-04  -4.53390E-05   4.84166E-06   8.80258E-04   1.53344E-04
 0.131   3.79468E-03                 0.00000E+00   1.65016E-03  -1.12028E-02   0.00000E+00  -7.59173E-04  -5.07899E-05   6.95571E-06   8.75144E-04   1.59026E-04
 0.141   4.09320E-03                 0.00000E+00   1.74620E-03  -1.20983E-02   0.00000E+00  -7.64341E-04  -4.93808E-05   9.27834E-06   8.69773E-04   1.63832E-04
 0.152   4.39116E-03                 0.00000E+00   1.84742E-03  -1.29908E-02   0.00000E+00  -7.67504E-04  -4.71076E-05   1.19074E-05   8.64285E-04   1.66984E-04
 0.162   4.69050E-03                 0.00000E+00   1.95760E-03  -1.38859E-02   0.00000E+00  -7.66859E-04  -5.25206E-05   1.50193E-05   8.58487E-04   1.69001E-04
 0.172   4.99098E-03                 0.00000E+00   2.07872E-03  -1.47824E-02   0.00000E+00  -7.67060E-04  -5.15775E-05   1.87430E-05   8.53306E-04   1.69688E-04
 0.182   5.29514E-03                 0.00000E+00   2.20787E-03  -1.56884E-02   0.00000E+00  -7.71600E-04  -4.85517E-05   2.29820E-05   8.48024E-04   1.68974E-04
 0.192   5.60361E-03                 0.00000E+00   2.34033E-03  -1.66067E-02   0.00000E+00  -7.77154E-04  -5.25696E-05   2.75068E-05   8.42212E-04   1.66681E-04
 0.202   5.91088E-03                 0.00000E+00   2.47598E-03  -1.75207E-02   0.00000E+00  -7.80453E-04  -5.31633E-05   3.23343E-05   8.36359E-04   1.63257E-04
