
 p_cosmn; fsq_total:  2.3108E-25
                       MPOL--->             0             1             2             0             1             2             0             1             2
RADIUS        RMS      NTOR--->            -1            -1            -1             0             0             0             1             1             1
 0.010   3.87262E-03                 0.00000E+00   2.37725E-07  -2.93725E-07   1.16177E-02   2.25981E-05  -5.41735E-05   6.65520E-07  -1.90207E-06   7.93115E-06
 0.020   3.87174E-03                 0.00000E+00   6.06284E-07   1.03320E-06   1.16148E-02   2.17913E-05  -9.71700E-05  -3.29895E-07  -2.86465E-06   1.24936E-05
 0.030   3.87223E-03                 0.00000E+00   4.54638E-07   7.66389E-08   1.16158E-02   2.15042E-05  -1.40444E-04   2.53053E-07  -3.18321E-06   1.75575E-05
 0.040   3.87239E-03                 0.00000E+00   4.65447E-07   5.58619E-07   1.16157E-02   2.20989E-05  -1.85282E-04  -2.16870E-07  -3.01121E-06   2.30225E-05
 0.051   3.87256E-03                 0.00000E+00   2.92373E-07   8.59127E-07   1.16154E-02   2.16154E-05  -2.28885E-04   1.05184E-07  -3.12476E-06   2.83892E-05
 0.061   3.87295E-03                 0.00000E+00   8.04083E-07   7.42486E-07   1.16155E-02   2.19960E-05  -2.75011E-04   8.26146E-08  -3.17673E-06   3.39691E-05
 0.071   3.87329E-03                 0.00000E+00  -2.72119E-08   1.33291E-06   1.16154E-02   2.17600E-05  -3.19028E-04  -3.52346E-07  -2.97670E-06   3.95288E-05
 0.081   3.87376E-03                 0.00000E+00   1.11533E-06   1.15380E-06   1.16154E-02   2.19084E-05  -3.66038E-04   6.79270E-07  -3.33010E-06   4.51931E-05
 0.091   3.87428E-03                 0.00000E+00  -2.73679E-07   1.92310E-06   1.16154E-02   2.18294E-05  -4.11065E-04  -1.00423E-06  -2.87280E-06   5.09231E-05
 0.101   3.87489E-03                 0.00000E+00   1.23782E-06   1.87793E-06   1.16155E-02   2.18411E-05  -4.57819E-04   1.22635E-06  -3.40749E-06   5.67014E-05
 0.111   3.87556E-03                 0.00000E+00  -1.49625E-07   2.51208E-06   1.16155E-02   2.16538E-05  -5.04814E-04  -1.21804E-06  -2.95982E-06   6.26294E-05
 0.121   3.87631E-03                 0.00000E+00   6.66125E-07   3.15703E-06   1.16157E-02   2.17310E-05  -5.49940E-04   8.67592E-07  -3.32280E-06   6.86181E-05
 0.131   3.87710E-03                 0.00000E+00   7.05572E-07   3.00410E-06   1.16156E-02   2.16369E-05  -5.99451E-04  -1.43423E-07  -3.20649E-06   7.46424E-05
 0.141   3.87794E-03                 0.00000E+00  -2.64420E-07   4.47558E-06   1.16156E-02   2.18737E-05  -6.44428E-04  -8.20149E-07  -2.93049E-06   8.06650E-05
 0.152   3.87892E-03                 0.00000E+00   1.40590E-06   3.79390E-06   1.16156E-02   2.24024E-05  -6.95280E-04   1.68575E-06  -3.27831E-06   8.63418E-05
 0.162   3.87994E-03                 0.00000E+00  -8.66207E-08   4.95623E-06   1.16156E-02   2.22686E-05  -7.44167E-04  -1.99037E-06  -2.69159E-06   9.22846E-05
 0.172   3.88106E-03                 0.00000E+00   8.06991E-07   5.43095E-06   1.16158E-02   2.20366E-05  -7.91884E-04   1.39351E-06  -3.23364E-06   9.80021E-05
 0.182   3.88227E-03                 0.00000E+00   7.01388E-07   4.77839E-06   1.16157E-02   2.20108E-05  -8.44489E-04   1.30559E-08  -3.15187E-06   1.04134E-04
 0.192   3.88343E-03                 0.00000E+00  -3.18300E-07   7.15007E-06   1.16156E-02   2.20135E-05  -8.90758E-04  -1.58665E-06  -2.88407E-06   1.10268E-04
 0.202   3.88481E-03                 0.00000E+00   1.39672E-06   6.35786E-06   1.16156E-02   2.23805E-05  -9.42535E-04   2.34426E-06  -3.30827E-06   1.16072E-04
 0.212   3.88624E-03                 0.00000E+00   2.98666E-07   7.14823E-06   1.16155E-02   2.23086E-05  -9.95070E-04  -1.58176E-06  -2.86838E-06   1.22207E-04
 0.222   3.88766E-03                 0.00000E+00   1.99757E-09   8.95778E-06   1.16156E-02   2.21181E-05  -1.04233E-03  -4.30206E-07  -3.00123E-06   1.28203E-04
 0.232   3.88931E-03                 0.00000E+00   1.33471E-06   7.61347E-06   1.16155E-02   2.24314E-05  -1.09690E-03   2.28914E-06  -3.32819E-06   1.34050E-04
 0.242   3.89093E-03                 0.00000E+00   3.71061E-09   9.45754E-06   1.16153E-02   2.23409E-05  -1.14850E-03  -2.37567E-06  -2.83478E-06   1.40461E-04
 0.253   3.89256E-03                 0.00000E+00   2.97221E-07   1.08235E-05   1.16152E-02   2.22024E-05  -1.19711E-03   3.47126E-07  -3.10000E-06   1.46307E-04
 0.263   3.89448E-03                 0.00000E+00   1.30506E-06   9.56400E-06   1.16150E-02   2.25289E-05  -1.25328E-03   2.11336E-06  -3.29316E-06   1.52271E-04
 0.273   3.89633E-03                 0.00000E+00  -8.58440E-08   1.19057E-05   1.16148E-02   2.23685E-05  -1.30516E-03  -2.56324E-06  -2.84410E-06   1.58666E-04
 0.283   3.89816E-03                 0.00000E+00   2.49731E-07   1.28302E-05   1.16146E-02   2.21882E-05  -1.35456E-03   2.93617E-07  -3.13306E-06   1.64568E-04
 0.293   3.90028E-03                 0.00000E+00   1.28759E-06   1.16674E-05   1.16141E-02   2.25540E-05  -1.41137E-03   2.39309E-06  -3.30408E-06   1.70411E-04
 0.303   3.90236E-03                 0.00000E+00   7.20793E-10   1.40777E-05   1.16137E-02   2.24486E-05  -1.46463E-03  -2.37863E-06  -2.88317E-06   1.76897E-04
 0.313   3.90434E-03                 0.00000E+00  -1.19048E-08   1.51366E-05   1.16133E-02   2.21364E-05  -1.51416E-03  -5.47048E-07  -3.07503E-06   1.82758E-04
 0.323   3.90659E-03                 0.00000E+00   1.20592E-06   1.36993E-05   1.16125E-02   2.24455E-05  -1.57065E-03   2.79442E-06  -3.35051E-06   1.88494E-04
 0.333   3.90887E-03                 0.00000E+00   3.03438E-07   1.55637E-05   1.16116E-02   2.24869E-05  -1.62621E-03  -1.34965E-06  -2.94638E-06   1.94814E-04
 0.343   3.91094E-03                 0.00000E+00  -4.02554E-07   1.70007E-05   1.16107E-02   2.20393E-05  -1.67611E-03  -2.01064E-06  -2.97471E-06   2.00884E-04
 0.354   3.91311E-03                 0.00000E+00   7.46272E-07   1.50892E-05   1.16092E-02   2.21411E-05  -1.73074E-03   2.47110E-06  -3.33399E-06   2.06319E-04
 0.364   3.91545E-03                 0.00000E+00   5.80408E-07   1.56069E-05   1.16074E-02   2.24521E-05  -1.78849E-03   6.99600E-07  -3.10650E-06   2.12371E-04
 0.374   3.91754E-03                 0.00000E+00  -5.73905E-07   1.71439E-05   1.16055E-02   2.20677E-05  -1.84049E-03  -2.80302E-06  -2.84327E-06   2.18548E-04
 0.384   3.91941E-03                 0.00000E+00  -5.76922E-08   1.48078E-05   1.16028E-02   2.16504E-05  -1.89235E-03   3.48440E-07  -3.21380E-06   2.24038E-04
 0.394   3.92140E-03                 0.00000E+00   6.12046E-07   1.25874E-05   1.15992E-02   2.18135E-05  -1.94990E-03   2.57716E-06  -3.26331E-06   2.29438E-04
 0.404   3.92327E-03                 0.00000E+00  -5.38802E-07   1.32071E-05   1.15952E-02   2.17870E-05  -2.00579E-03  -1.19543E-06  -2.88513E-06   2.35515E-04
 0.414   3.92463E-03                 0.00000E+00  -1.20001E-06   1.06968E-05   1.15903E-02   2.11867E-05  -2.05693E-03  -2.33152E-06  -2.90960E-06   2.41245E-04
 0.424   3.92563E-03                 0.00000E+00  -4.00976E-07   4.65014E-06   1.15836E-02   2.07473E-05  -2.11075E-03   1.44483E-06  -3.29002E-06   2.46354E-04
 0.434   3.92652E-03                 0.00000E+00  -5.00345E-07   7.95606E-07   1.15755E-02   2.06787E-05  -2.16837E-03   1.90640E-06  -3.08341E-06   2.51650E-04
 0.444   3.92691E-03                 0.00000E+00  -1.90253E-06  -2.72977E-06   1.15662E-02   2.02363E-05  -2.22286E-03  -1.78990E-06  -2.73935E-06   2.57483E-04
 0.455   3.92641E-03                 0.00000E+00  -2.23256E-06  -1.19979E-05   1.15546E-02   1.91512E-05  -2.27392E-03  -2.01813E-06  -2.90614E-06   2.62823E-04
 0.465   3.92513E-03                 0.00000E+00  -1.72543E-06  -2.42119E-05   1.15399E-02   1.80659E-05  -2.32761E-03   1.37971E-06  -3.22963E-06   2.67587E-04
 0.475   3.92325E-03                 0.00000E+00  -2.64940E-06  -3.42303E-05   1.15225E-02   1.73609E-05  -2.38392E-03   1.67977E-06  -2.90359E-06   2.72501E-04
 0.485   3.92034E-03                 0.00000E+00  -4.47086E-06  -4.65201E-05   1.15022E-02   1.64653E-05  -2.43731E-03  -1.60305E-06  -2.56101E-06   2.77918E-04
 0.495   3.91582E-03                 0.00000E+00  -4.97764E-06  -6.71306E-05   1.14775E-02   1.47269E-05  -2.48718E-03  -2.36911E-06  -2.74013E-06   2.82958E-04
 0.505   3.90965E-03                 0.00000E+00  -4.73613E-06  -9.25861E-05   1.14470E-02   1.23850E-05  -2.53816E-03   4.33385E-07  -3.07027E-06   2.87386E-04
 0.515   3.90195E-03                 0.00000E+00  -6.14282E-06  -1.17647E-04   1.14111E-02   1.01018E-05  -2.59127E-03   1.68631E-06  -2.71770E-06   2.91728E-04
 0.525   3.89236E-03                 0.00000E+00  -8.75261E-06  -1.46885E-04   1.13694E-02   7.75594E-06  -2.64240E-03  -8.17416E-07  -2.27715E-06   2.96553E-04
 0.535   3.88012E-03                 0.00000E+00  -1.03641E-05  -1.87310E-04   1.13199E-02   4.44339E-06  -2.68922E-03  -2.90706E-06  -2.35286E-06   3.01269E-04
 0.545   3.86483E-03                 0.00000E+00  -1.11539E-05  -2.36782E-04   1.12608E-02  -8.16145E-08  -2.73431E-03  -1.46705E-06  -2.77576E-06   3.05325E-04
 0.556   3.84649E-03                 0.00000E+00  -1.35065E-05  -2.89384E-04   1.11916E-02  -4.89813E-06  -2.78013E-03   9.55321E-07  -2.53415E-06   3.08853E-04
 0.566   3.82489E-03                 0.00000E+00  -1.75570E-05  -3.47912E-04   1.11117E-02  -9.40069E-06  -2.82487E-03   3.12079E-07  -1.95443E-06   3.12654E-04
 0.576   3.79922E-03                 0.00000E+00  -2.09096E-05  -4.20996E-04   1.10191E-02  -1.46454E-05  -2.86495E-03  -2.65219E-06  -1.74362E-06   3.16758E-04
 0.586   3.76867E-03                 0.00000E+00  -2.28779E-05  -5.10367E-04   1.09111E-02  -2.20716E-05  -2.89979E-03  -3.86193E-06  -2.22716E-06   3.20524E-04
 0.596   3.73291E-03                 0.00000E+00  -2.59203E-05  -6.10213E-04   1.07860E-02  -3.13849E-05  -2.93183E-03  -1.79488E-06  -2.29460E-06   3.23396E-04
 0.606   3.69186E-03                 0.00000E+00  -3.18141E-05  -7.19045E-04   1.06427E-02  -4.09153E-05  -2.96223E-03   1.85232E-07  -1.75624E-06   3.25847E-04
 0.616   3.64508E-03                 0.00000E+00  -3.90881E-05  -8.43747E-04   1.04798E-02  -5.02187E-05  -2.98830E-03  -1.28239E-06  -1.13816E-06   3.28514E-04
 0.626   3.59170E-03                 0.00000E+00  -4.59302E-05  -9.89452E-04   1.02943E-02  -6.07190E-05  -3.00602E-03  -4.83209E-06  -1.48292E-06   3.31244E-04
 0.636   3.53097E-03                 0.00000E+00  -5.34264E-05  -1.15231E-03   1.00835E-02  -7.31471E-05  -3.01434E-03  -5.93039E-06  -1.96475E-06   3.33055E-04
 0.646   3.46274E-03                 0.00000E+00  -6.34112E-05  -1.32719E-03   9.84572E-03  -8.56456E-05  -3.01547E-03  -3.40597E-06  -1.89135E-06   3.33553E-04
 0.657   3.38732E-03                 0.00000E+00  -7.50566E-05  -1.51666E-03   9.58001E-03  -9.61086E-05  -3.01042E-03  -1.41969E-06  -1.00728E-06   3.33493E-04
 0.667   3.30474E-03                 0.00000E+00  -8.61124E-05  -1.72648E-03   9.28476E-03  -1.05273E-04  -2.99576E-03  -3.93987E-06  -8.88162E-07   3.33635E-04
 0.677   3.21447E-03                 0.00000E+00  -9.73625E-05  -1.95446E-03   8.95783E-03  -1.15415E-04  -2.96627E-03  -8.52158E-06  -1.50470E-06   3.33435E-04
 0.687   3.11616E-03                 0.00000E+00  -1.11541E-04  -2.19200E-03   8.59778E-03  -1.25621E-04  -2.92051E-03  -9.28989E-06  -2.24518E-06   3.31446E-04
 0.697   3.01052E-03                 0.00000E+00  -1.28576E-04  -2.43435E-03   8.20460E-03  -1.31363E-04  -2.86116E-03  -5.68823E-06  -1.63875E-06   3.27515E-04
 0.707   2.89873E-03                 0.00000E+00  -1.45443E-04  -2.68078E-03   7.77953E-03  -1.29285E-04  -2.78824E-03  -4.16739E-06  -1.08674E-06   3.22511E-04
 0.717   2.78068E-03                 0.00000E+00  -1.62073E-04  -2.92256E-03   7.32432E-03  -1.19781E-04  -2.69473E-03  -8.46760E-06  -1.31493E-06   3.16882E-04
 0.727   2.65472E-03                 0.00000E+00  -1.79855E-04  -3.14169E-03   6.84111E-03  -1.02137E-04  -2.57261E-03  -1.27702E-05  -2.48172E-06   3.08934E-04
 0.737   2.52051E-03                 0.00000E+00  -1.92619E-04  -3.32451E-03   6.33397E-03  -7.23826E-05  -2.42355E-03  -1.04376E-05  -1.92219E-06   2.98265E-04
 0.747   2.38042E-03                 0.00000E+00  -1.88082E-04  -3.46474E-03   5.81171E-03  -3.06111E-05  -2.25808E-03  -5.26987E-06  -3.47343E-07   2.85939E-04
 0.758   2.23609E-03                 0.00000E+00  -1.66300E-04  -3.54852E-03   5.28810E-03   1.35672E-05  -2.08380E-03  -5.09378E-06   9.55634E-07   2.73480E-04
 0.768   2.08635E-03                 0.00000E+00  -1.40831E-04  -3.55770E-03   4.77647E-03   5.20432E-05  -1.90107E-03  -6.66110E-06   4.85477E-07   2.58739E-04
 0.778   1.93195E-03                 0.00000E+00  -1.14488E-04  -3.49121E-03   4.28724E-03   8.67244E-05  -1.71571E-03  -2.64977E-06   1.44794E-06   2.41861E-04
 0.788   1.77625E-03                 0.00000E+00  -7.75833E-05  -3.35489E-03   3.83318E-03   1.17952E-04  -1.54173E-03   2.72995E-06   3.31073E-06   2.23875E-04
 0.798   1.62000E-03                 0.00000E+00  -4.16279E-05  -3.14270E-03   3.42957E-03   1.39927E-04  -1.38489E-03   3.85796E-06   4.25159E-06   2.04590E-04
 0.808   1.46694E-03                 0.00000E+00  -1.76800E-05  -2.87408E-03   3.08292E-03   1.55678E-04  -1.24277E-03   5.49779E-06   3.39356E-06   1.82747E-04
 0.818   1.32714E-03                 0.00000E+00   1.85095E-05  -2.58186E-03   2.80119E-03   1.56925E-04  -1.13432E-03   6.43411E-06   4.82094E-06   1.65564E-04
 0.828   1.21275E-03                 0.00000E+00   5.04173E-05  -2.28753E-03   2.60494E-03   1.26641E-04  -1.08525E-03   7.53847E-06   4.80176E-06   1.48190E-04
 0.838   1.12713E-03                 0.00000E+00   3.47786E-05  -2.03618E-03   2.48021E-03   1.08722E-04  -1.05216E-03   6.98174E-06   1.67783E-06   1.27040E-04
 0.848   1.01591E-03                 0.00000E+00   2.62138E-05  -1.65886E-03   2.36899E-03   1.60974E-04  -9.41540E-04   1.23792E-05   5.02963E-06   1.06620E-04
 0.859   8.46643E-04                 0.00000E+00   4.80228E-05  -7.50135E-04   2.26867E-03   2.19539E-04  -8.27721E-04   3.79138E-05   1.48284E-05   6.60959E-05
 0.869   7.86924E-04                 0.00000E+00   7.91818E-06   5.31578E-04   2.14262E-03   1.45046E-04  -8.23166E-04   2.99836E-05   1.41831E-05   5.19604E-06
 0.879   7.53621E-04                 0.00000E+00  -4.79881E-05   1.14795E-03   1.78226E-03  -8.11729E-07  -7.83626E-04  -4.97544E-06   1.63930E-08  -2.96602E-05
 0.889   5.10156E-04                 0.00000E+00  -4.52295E-05   8.46502E-04   1.14444E-03  -5.07204E-05  -5.57281E-04  -1.28468E-05  -5.99376E-06  -2.54491E-05
 0.899   2.37773E-04                 0.00000E+00  -2.55615E-05   3.77192E-04   5.38424E-04  -2.91658E-05  -2.73733E-04  -8.46009E-06  -4.10872E-06  -1.13294E-05
 0.909   8.20258E-05                 0.00000E+00  -9.24495E-06   1.10768E-04   1.95501E-04  -9.33430E-06  -9.93401E-05  -3.00117E-06  -1.52836E-06  -3.38769E-06
 0.919   2.56046E-05                 0.00000E+00  -2.47796E-06   2.44633E-05   6.58334E-05  -6.32991E-07  -3.09896E-05  -5.26544E-07  -2.89065E-07  -7.78613E-07
 0.929   9.32782E-06                 0.00000E+00  -9.30309E-07   7.23472E-06   2.46176E-05   2.73699E-07  -1.11206E-05  -1.98662E-07  -8.42078E-08  -2.29135E-07
 0.939   3.23866E-06                 0.00000E+00  -2.31128E-07   2.17415E-06   8.59216E-06  -4.21537E-08  -3.97265E-06  -4.02839E-08  -2.19940E-08  -9.58289E-08
 0.949   9.55233E-07                 0.00000E+00  -6.84045E-08   5.92395E-07   2.54476E-06  -1.21490E-08  -1.17450E-06  -1.25258E-08  -6.95846E-09  -3.14843E-08
 0.960   1.98442E-07                 0.00000E+00  -1.21853E-08   9.86308E-08   5.34858E-07  -8.85864E-11  -2.41672E-07  -1.87548E-09  -1.15535E-09  -7.26859E-09
 0.970   3.13081E-08                 0.00000E+00  -1.87238E-09   1.23585E-08   8.52273E-08   6.59255E-10  -3.74124E-08  -2.61702E-10  -1.65691E-10  -1.27162E-09
 0.980   2.50463E-09                 0.00000E+00  -8.16089E-11   7.33452E-10   6.85761E-09   1.16619E-11  -2.97856E-09  -7.85070E-12  -6.74595E-12  -1.23121E-10
 0.990   9.38546E-11                 0.00000E+00  -1.18355E-13   1.80873E-11   2.58190E-10  -1.52351E-12  -1.10704E-10   1.37139E-13   2.14215E-14  -5.61539E-12
 1.000   8.11989E-13                 0.00000E+00   4.86402E-17   7.66238E-15   2.25145E-12  -9.53230E-15  -9.28429E-13   0.00000E+00   5.96493E-16  -5.27808E-14

 B^s_sinmn; fsq_total:  2.3108E-25
                       MPOL--->             0             1             2             0             1             2             0             1             2
RADIUS        RMS      NTOR--->            -1            -1            -1             0             0             0             1             1             1
 0.010   1.10851E-03                 0.00000E+00   1.23510E-03  -1.40704E-03   0.00000E+00  -5.17401E-04  -9.24427E-04  -1.32008E-06   1.66393E-03   1.91390E-03
 0.020   7.81580E-04                 0.00000E+00   1.52337E-03  -1.33166E-03   0.00000E+00  -1.75216E-04  -9.68797E-05   7.22280E-07   1.15729E-03   1.56233E-04
 0.030   8.16367E-04                 0.00000E+00   1.65994E-03  -1.50087E-03   0.00000E+00  -7.62730E-05  -5.10408E-06   3.41930E-06   9.91703E-04  -2.72730E-05
 0.040   9.05493E-04                 0.00000E+00   1.71679E-03  -1.87019E-03   0.00000E+00  -8.38104E-05  -5.47655E-05   5.64259E-06   9.58853E-04   6.95739E-05
 0.051   1.02114E-03                 0.00000E+00   1.75669E-03  -2.32453E-03   0.00000E+00  -8.58422E-05  -6.86286E-05   7.92224E-06   9.36342E-04   7.87959E-05
 0.061   1.14541E-03                 0.00000E+00   1.79003E-03  -2.77870E-03   0.00000E+00  -8.74217E-05  -8.87171E-05   1.01974E-05   9.24823E-04   1.06346E-04
 0.071   1.27800E-03                 0.00000E+00   1.82545E-03  -3.24002E-03   0.00000E+00  -9.17478E-05  -1.03419E-04   1.26288E-05   9.14190E-04   1.21037E-04
 0.081   1.41722E-03                 0.00000E+00   1.85750E-03  -3.70971E-03   0.00000E+00  -9.49096E-05  -1.19420E-04   1.50620E-05   9.06240E-04   1.39705E-04
 0.091   1.56131E-03                 0.00000E+00   1.89476E-03  -4.18218E-03   0.00000E+00  -9.75814E-05  -1.33581E-04   1.76955E-05   8.98291E-04   1.54510E-04
 0.101   1.70855E-03                 0.00000E+00   1.93261E-03  -4.65631E-03   0.00000E+00  -1.01825E-04  -1.48803E-04   2.04052E-05   8.91055E-04   1.70461E-04
 0.111   1.85906E-03                 0.00000E+00   1.97300E-03  -5.13417E-03   0.00000E+00  -1.04463E-04  -1.61365E-04   2.32568E-05   8.83698E-04   1.84475E-04
 0.121   2.01311E-03                 0.00000E+00   2.01853E-03  -5.61678E-03   0.00000E+00  -1.07793E-04  -1.76920E-04   2.63240E-05   8.76269E-04   1.98808E-04
 0.131   2.16697E-03                 0.00000E+00   2.06456E-03  -6.09517E-03   0.00000E+00  -1.11933E-04  -1.88061E-04   2.94800E-05   8.68749E-04   2.11877E-04
 0.141   2.32509E-03                 0.00000E+00   2.11596E-03  -6.58258E-03   0.00000E+00  -1.14730E-04  -2.02737E-04   3.28847E-05   8.60774E-04   2.24638E-04
 0.152   2.48360E-03                 0.00000E+00   2.17025E-03  -7.06815E-03   0.00000E+00  -1.18405E-04  -2.14979E-04   3.64595E-05   8.53297E-04   2.36477E-04
 0.162   2.64269E-03                 0.00000E+00   2.22745E-03  -7.55303E-03   0.00000E+00  -1.21248E-04  -2.26576E-04   4.02253E-05   8.45776E-04   2.47681E-04
 0.172   2.80567E-03                 0.00000E+00   2.28936E-03  -8.04734E-03   0.00000E+00  -1.22902E-04  -2.41400E-04   4.42488E-05   8.38725E-04   2.57986E-04
 0.182   2.96690E-03                 0.00000E+00   2.35348E-03  -8.53455E-03   0.00000E+00  -1.25349E-04  -2.51175E-04   4.84565E-05   8.31788E-04   2.67787E-04
 0.192   3.13042E-03                 0.00000E+00   2.42181E-03  -9.02693E-03   0.00000E+00  -1.26964E-04  -2.64832E-04   5.29344E-05   8.24285E-04   2.76575E-04
 0.202   3.29548E-03                 0.00000E+00   2.49395E-03  -9.52243E-03   0.00000E+00  -1.28656E-04  -2.77380E-04   5.76620E-05   8.17043E-04   2.84802E-04
