
 p_cosmn; fsq_total:  2.1605E-25
                       MPOL--->             0             1             2             0             1             2             0             1             2
RADIUS        RMS      NTOR--->            -1            -1            -1             0             0             0             1             1             1
 0.010   3.87122E-03                 0.00000E+00   7.01566E-07   1.05260E-06   1.16135E-02   2.18194E-05  -5.36614E-05  -7.26413E-08  -2.20802E-06   7.77183E-06
 0.020   3.87162E-03                 0.00000E+00   5.90852E-07  -3.53558E-08   1.16144E-02   2.15086E-05  -9.71087E-05   3.11420E-08  -2.94693E-06   1.23628E-05
 0.030   3.87178E-03                 0.00000E+00   2.72759E-07   5.74133E-07   1.16145E-02   2.21218E-05  -1.40623E-04   1.96816E-09  -3.06611E-06   1.76572E-05
 0.040   3.87185E-03                 0.00000E+00   5.72038E-07   6.68273E-07   1.16140E-02   2.15640E-05  -1.84942E-04  -3.64539E-08  -3.07945E-06   2.29471E-05
 0.051   3.87227E-03                 0.00000E+00   4.83573E-07   6.09131E-07   1.16145E-02   2.19810E-05  -2.29324E-04   6.14441E-08  -3.14150E-06   2.84339E-05
 0.061   3.87246E-03                 0.00000E+00   3.40516E-07   9.80483E-07   1.16141E-02   2.17683E-05  -2.74403E-04  -7.45276E-08  -3.07060E-06   3.39384E-05
 0.071   3.87291E-03                 0.00000E+00   6.50942E-07   1.13851E-06   1.16143E-02   2.19137E-05  -3.19630E-04   8.20659E-08  -3.16404E-06   3.95350E-05
 0.081   3.87335E-03                 0.00000E+00   3.11706E-07   1.40428E-06   1.16142E-02   2.17880E-05  -3.65422E-04  -8.92638E-08  -3.07610E-06   4.51921E-05
 0.091   3.87389E-03                 0.00000E+00   6.06430E-07   1.67119E-06   1.16143E-02   2.19275E-05  -4.11388E-04   9.72315E-08  -3.17132E-06   5.09017E-05
 0.101   3.87449E-03                 0.00000E+00   4.10567E-07   2.06635E-06   1.16143E-02   2.17362E-05  -4.57803E-04  -1.01620E-07  -3.10339E-06   5.67206E-05
 0.111   3.87519E-03                 0.00000E+00   4.67151E-07   2.49259E-06   1.16144E-02   2.17636E-05  -5.04194E-04   9.73842E-08  -3.21702E-06   6.25947E-05
 0.121   3.87593E-03                 0.00000E+00   4.82586E-07   2.90307E-06   1.16145E-02   2.16308E-05  -5.51021E-04  -7.84737E-08  -3.17095E-06   6.86337E-05
 0.131   3.87673E-03                 0.00000E+00   3.61391E-07   3.59319E-06   1.16146E-02   2.16639E-05  -5.97879E-04   4.17094E-08  -3.20819E-06   7.46325E-05
 0.141   3.87760E-03                 0.00000E+00   5.46447E-07   3.73006E-06   1.16146E-02   2.19651E-05  -6.45840E-04   6.46575E-09  -3.09004E-06   8.06260E-05
 0.152   3.87854E-03                 0.00000E+00   4.44878E-07   4.50610E-06   1.16145E-02   2.22233E-05  -6.94365E-04  -5.40808E-08  -3.00245E-06   8.64040E-05
 0.162   3.87962E-03                 0.00000E+00   6.93997E-07   4.66367E-06   1.16147E-02   2.23990E-05  -7.43853E-04   9.35167E-08  -2.98437E-06   9.21858E-05
 0.172   3.88074E-03                 0.00000E+00   5.00872E-07   5.17611E-06   1.16147E-02   2.20202E-05  -7.93235E-04  -1.09231E-07  -3.05294E-06   9.80596E-05
 0.182   3.88192E-03                 0.00000E+00   3.97825E-07   5.64445E-06   1.16148E-02   2.19545E-05  -8.42392E-04   7.78762E-08  -3.13054E-06   1.04127E-04
 0.192   3.88315E-03                 0.00000E+00   5.48204E-07   6.17444E-06   1.16147E-02   2.21004E-05  -8.92263E-04   1.43833E-09  -3.10313E-06   1.10176E-04
 0.202   3.88449E-03                 0.00000E+00   4.67097E-07   7.05637E-06   1.16147E-02   2.22827E-05  -9.42357E-04  -9.94047E-08  -3.01258E-06   1.16189E-04
 0.212   3.88595E-03                 0.00000E+00   6.84185E-07   7.42923E-06   1.16148E-02   2.23376E-05  -9.93431E-04   1.77794E-07  -3.06548E-06   1.22106E-04
 0.222   3.88745E-03                 0.00000E+00   4.35774E-07   8.02234E-06   1.16147E-02   2.22222E-05  -1.04449E-03  -2.02682E-07  -3.02928E-06   1.28171E-04
 0.232   3.88902E-03                 0.00000E+00   4.77665E-07   8.79512E-06   1.16147E-02   2.23018E-05  -1.09561E-03   1.44662E-07  -3.10776E-06   1.34181E-04
 0.242   3.89068E-03                 0.00000E+00   6.30305E-07   9.27311E-06   1.16146E-02   2.23719E-05  -1.14758E-03  -1.37181E-08  -3.06610E-06   1.40293E-04
 0.253   3.89241E-03                 0.00000E+00   4.52306E-07   1.02763E-05   1.16145E-02   2.23145E-05  -1.19928E-03  -1.32012E-07  -3.06111E-06   1.46327E-04
 0.263   3.89424E-03                 0.00000E+00   5.47350E-07   1.08835E-05   1.16144E-02   2.24025E-05  -1.25168E-03   2.00058E-07  -3.10872E-06   1.52399E-04
 0.273   3.89613E-03                 0.00000E+00   5.38844E-07   1.15389E-05   1.16143E-02   2.23903E-05  -1.30435E-03  -1.39442E-07  -3.07564E-06   1.58479E-04
 0.283   3.89808E-03                 0.00000E+00   4.26160E-07   1.25671E-05   1.16141E-02   2.23696E-05  -1.35678E-03  -3.32527E-08  -3.09029E-06   1.64570E-04
 0.293   3.90012E-03                 0.00000E+00   5.74447E-07   1.31947E-05   1.16138E-02   2.24481E-05  -1.41010E-03   2.00328E-07  -3.12614E-06   1.70582E-04
 0.303   3.90222E-03                 0.00000E+00   4.57535E-07   1.40066E-05   1.16135E-02   2.23849E-05  -1.46327E-03  -2.46430E-07  -3.06995E-06   1.76711E-04
 0.313   3.90436E-03                 0.00000E+00   3.89345E-07   1.49925E-05   1.16130E-02   2.23834E-05  -1.51642E-03   1.04788E-07  -3.12413E-06   1.82674E-04
 0.323   3.90659E-03                 0.00000E+00   5.05079E-07   1.55383E-05   1.16125E-02   2.24591E-05  -1.57040E-03   1.07882E-07  -3.11638E-06   1.88718E-04
 0.333   3.90882E-03                 0.00000E+00   3.70399E-07   1.63712E-05   1.16118E-02   2.23580E-05  -1.62399E-03  -2.40731E-07  -3.08104E-06   1.94708E-04
 0.343   3.91109E-03                 0.00000E+00   2.76761E-07   1.71901E-05   1.16109E-02   2.23650E-05  -1.67775E-03   1.32548E-07  -3.12862E-06   2.00639E-04
 0.354   3.91340E-03                 0.00000E+00   3.72157E-07   1.75495E-05   1.16098E-02   2.24247E-05  -1.73220E-03   8.98680E-08  -3.11483E-06   2.06524E-04
 0.364   3.91566E-03                 0.00000E+00   2.02915E-07   1.81038E-05   1.16084E-02   2.22965E-05  -1.78619E-03  -2.73844E-07  -3.07364E-06   2.12465E-04
 0.374   3.91789E-03                 0.00000E+00   6.27453E-08   1.84972E-05   1.16066E-02   2.22750E-05  -1.84036E-03   1.55295E-07  -3.12809E-06   2.18185E-04
 0.384   3.92010E-03                 0.00000E+00   7.85461E-08   1.83938E-05   1.16044E-02   2.23276E-05  -1.89515E-03   6.59387E-08  -3.10170E-06   2.23988E-04
 0.394   3.92217E-03                 0.00000E+00  -8.72033E-08   1.81841E-05   1.16016E-02   2.21618E-05  -1.94945E-03  -2.72676E-07  -3.05817E-06   2.29705E-04
 0.404   3.92409E-03                 0.00000E+00  -3.59163E-07   1.77162E-05   1.15980E-02   2.20671E-05  -2.00383E-03   8.14605E-08  -3.10488E-06   2.35308E-04
 0.414   3.92586E-03                 0.00000E+00  -4.21877E-07   1.65036E-05   1.15937E-02   2.20686E-05  -2.05877E-03   1.11790E-07  -3.08398E-06   2.40832E-04
 0.424   3.92735E-03                 0.00000E+00  -6.62852E-07   1.48699E-05   1.15883E-02   2.18446E-05  -2.11327E-03  -3.10469E-07  -3.02059E-06   2.46412E-04
 0.434   3.92848E-03                 0.00000E+00  -1.07828E-06   1.25876E-05   1.15816E-02   2.16098E-05  -2.16757E-03  -2.15012E-08  -3.05611E-06   2.51726E-04
 0.444   3.92924E-03                 0.00000E+00  -1.38504E-06   9.33517E-06   1.15735E-02   2.15149E-05  -2.22233E-03   1.17177E-07  -3.04939E-06   2.57031E-04
 0.455   3.92948E-03                 0.00000E+00  -1.66235E-06   4.96713E-06   1.15635E-02   2.11869E-05  -2.27671E-03  -2.92376E-07  -2.95913E-06   2.62287E-04
 0.465   3.92906E-03                 0.00000E+00  -2.29442E-06  -5.42131E-07   1.15514E-02   2.06870E-05  -2.33055E-03  -2.28591E-07  -2.96507E-06   2.67400E-04
 0.475   3.92787E-03                 0.00000E+00  -2.95488E-06  -7.62054E-06   1.15366E-02   2.03250E-05  -2.38456E-03   8.24152E-08  -2.97998E-06   2.72283E-04
 0.485   3.92578E-03                 0.00000E+00  -3.52081E-06  -1.65439E-05   1.15188E-02   1.98234E-05  -2.43823E-03  -2.70497E-07  -2.87873E-06   2.77240E-04
 0.495   3.92254E-03                 0.00000E+00  -4.35088E-06  -2.76531E-05   1.14974E-02   1.89894E-05  -2.49096E-03  -4.40887E-07  -2.81681E-06   2.81974E-04
 0.505   3.91795E-03                 0.00000E+00  -5.49934E-06  -4.13471E-05   1.14717E-02   1.81439E-05  -2.54328E-03  -1.41758E-07  -2.84819E-06   2.86503E-04
 0.515   3.91181E-03                 0.00000E+00  -6.57276E-06  -5.80366E-05   1.14410E-02   1.72262E-05  -2.59511E-03  -2.44855E-07  -2.76568E-06   2.90906E-04
 0.525   3.90384E-03                 0.00000E+00  -7.73381E-06  -7.83009E-05   1.14047E-02   1.58485E-05  -2.64564E-03  -6.66006E-07  -2.62734E-06   2.95284E-04
 0.535   3.89367E-03                 0.00000E+00  -9.48027E-06  -1.02700E-04   1.13615E-02   1.41917E-05  -2.69487E-03  -5.14218E-07  -2.60974E-06   2.99256E-04
 0.545   3.88098E-03                 0.00000E+00  -1.14931E-05  -1.31798E-04   1.13104E-02   1.25349E-05  -2.74300E-03  -4.08698E-07  -2.59718E-06   3.03062E-04
 0.556   3.86541E-03                 0.00000E+00  -1.34222E-05  -1.66328E-04   1.12504E-02   1.04951E-05  -2.78927E-03  -8.25520E-07  -2.41921E-06   3.06738E-04
 0.566   3.84650E-03                 0.00000E+00  -1.56561E-05  -2.07424E-04   1.11801E-02   7.79370E-06  -2.83313E-03  -1.07471E-06  -2.28396E-06   3.10204E-04
 0.576   3.82373E-03                 0.00000E+00  -1.86944E-05  -2.55855E-04   1.10978E-02   4.76108E-06  -2.87470E-03  -8.52734E-07  -2.28187E-06   3.13158E-04
 0.586   3.79661E-03                 0.00000E+00  -2.20138E-05  -3.12326E-04   1.10019E-02   1.45142E-06  -2.91344E-03  -1.10219E-06  -2.20107E-06   3.15966E-04
 0.596   3.76459E-03                 0.00000E+00  -2.54104E-05  -3.77978E-04   1.08909E-02  -2.61484E-06  -2.94827E-03  -1.65495E-06  -1.95356E-06   3.18511E-04
 0.606   3.72707E-03                 0.00000E+00  -2.96367E-05  -4.54028E-04   1.07627E-02  -7.35648E-06  -2.97880E-03  -1.70951E-06  -1.84495E-06   3.20570E-04
 0.616   3.68337E-03                 0.00000E+00  -3.49506E-05  -5.41258E-04   1.06150E-02  -1.22232E-05  -3.00466E-03  -1.61936E-06  -1.85367E-06   3.21981E-04
 0.626   3.63286E-03                 0.00000E+00  -4.03499E-05  -6.40723E-04   1.04458E-02  -1.74271E-05  -3.02456E-03  -2.28315E-06  -1.72210E-06   3.23219E-04
 0.636   3.57492E-03                 0.00000E+00  -4.56518E-05  -7.54010E-04   1.02528E-02  -2.36711E-05  -3.03730E-03  -2.91798E-06  -1.42925E-06   3.24004E-04
 0.646   3.50897E-03                 0.00000E+00  -5.22592E-05  -8.82006E-04   1.00335E-02  -3.06366E-05  -3.04255E-03  -2.81482E-06  -1.38137E-06   3.23979E-04
 0.657   3.43432E-03                 0.00000E+00  -6.05516E-05  -1.02475E-03   9.78545E-03  -3.73992E-05  -3.03913E-03  -2.96856E-06  -1.44261E-06   3.23095E-04
 0.667   3.35042E-03                 0.00000E+00  -6.91148E-05  -1.18238E-03   9.50636E-03  -4.39682E-05  -3.02462E-03  -4.09943E-06  -1.32586E-06   3.21880E-04
 0.677   3.25697E-03                 0.00000E+00  -7.77258E-05  -1.35493E-03   9.19450E-03  -5.05669E-05  -2.99752E-03  -4.71418E-06  -1.03981E-06   3.19760E-04
 0.687   3.15379E-03                 0.00000E+00  -8.79293E-05  -1.54095E-03   8.84796E-03  -5.59209E-05  -2.95731E-03  -4.34934E-06  -1.12468E-06   3.16260E-04
 0.697   3.04067E-03                 0.00000E+00  -9.91595E-05  -1.73785E-03   8.46522E-03  -5.86454E-05  -2.90183E-03  -4.87610E-06  -1.25915E-06   3.11654E-04
 0.707   2.91788E-03                 0.00000E+00  -1.08374E-04  -1.94323E-03   8.04620E-03  -5.94337E-05  -2.82830E-03  -6.56856E-06  -1.13249E-06   3.06691E-04
 0.717   2.78629E-03                 0.00000E+00  -1.16007E-04  -2.15318E-03   7.59207E-03  -5.87979E-05  -2.73639E-03  -6.70131E-06  -8.12155E-07   3.00273E-04
 0.727   2.64664E-03                 0.00000E+00  -1.25567E-04  -2.35991E-03   7.10446E-03  -5.37026E-05  -2.62608E-03  -5.54357E-06  -1.06558E-06   2.91626E-04
 0.737   2.49908E-03                 0.00000E+00  -1.35082E-04  -2.55232E-03   6.58626E-03  -4.09988E-05  -2.49326E-03  -6.50066E-06  -1.13384E-06   2.81619E-04
 0.747   2.34443E-03                 0.00000E+00  -1.37684E-04  -2.71836E-03   6.04394E-03  -2.17737E-05  -2.33571E-03  -7.94908E-06  -6.57630E-07   2.70923E-04
 0.758   2.18438E-03                 0.00000E+00  -1.33203E-04  -2.84373E-03   5.48740E-03   2.81270E-06  -2.15900E-03  -5.44676E-06   9.85480E-08   2.57472E-04
 0.768   2.02009E-03                 0.00000E+00  -1.23858E-04  -2.91290E-03   4.92835E-03   3.35670E-05  -1.96935E-03  -3.01757E-06   2.21327E-07   2.41630E-04
 0.778   1.85281E-03                 0.00000E+00  -1.03635E-04  -2.91353E-03   4.38240E-03   6.37362E-05  -1.77090E-03  -4.26426E-06   1.26285E-06   2.26222E-04
 0.788   1.68599E-03                 0.00000E+00  -7.52800E-05  -2.84068E-03   3.86897E-03   8.50595E-05  -1.57734E-03  -9.71831E-07   2.46688E-06   2.09019E-04
 0.798   1.52203E-03                 0.00000E+00  -5.35119E-05  -2.69563E-03   3.40267E-03   1.04173E-04  -1.39845E-03   4.19917E-06   2.77698E-06   1.87763E-04
 0.808   1.36222E-03                 0.00000E+00  -3.07845E-05  -2.48496E-03   2.99408E-03   1.21538E-04  -1.23167E-03   2.14768E-06   3.09785E-06   1.68465E-04
 0.818   1.21515E-03                 0.00000E+00   1.77012E-06  -2.22693E-03   2.66153E-03   1.19894E-04  -1.09966E-03   5.07541E-06   4.55603E-06   1.50230E-04
 0.828   1.09592E-03                 0.00000E+00   2.16433E-05  -1.96642E-03   2.42175E-03   9.97368E-05  -1.02484E-03   7.01561E-06   3.28025E-06   1.29904E-04
 0.838   9.95773E-04                 0.00000E+00   1.56235E-05  -1.70613E-03   2.25524E-03   9.89983E-05  -9.51145E-04   5.18299E-06   2.48741E-06   1.11155E-04
 0.848   8.66662E-04                 0.00000E+00   1.99281E-05  -1.21640E-03   2.13103E-03   1.48232E-04  -8.42039E-04   1.98311E-05   7.06821E-06   8.46874E-05
 0.859   7.32275E-04                 0.00000E+00   1.53451E-05  -2.16730E-04   2.03664E-03   1.58712E-04  -7.76494E-04   3.19063E-05   1.38229E-05   4.00943E-05
 0.869   7.09857E-04                 0.00000E+00  -2.42868E-05   7.40442E-04   1.84405E-03   5.88616E-05  -7.62903E-04   1.15371E-05   7.16218E-06  -6.62584E-06
 0.879   5.77074E-04                 0.00000E+00  -4.09171E-05   8.61688E-04   1.36269E-03  -2.57122E-05  -6.28393E-04  -9.82960E-06  -3.75085E-06  -1.95572E-05
 0.889   3.16872E-04                 0.00000E+00  -2.80682E-05   4.62806E-04   7.45558E-04  -2.62051E-05  -3.63231E-04  -8.92954E-06  -4.35309E-06  -1.08065E-05
 0.899   1.28908E-04                 0.00000E+00  -1.28301E-05   1.57274E-04   3.17244E-04  -8.35514E-06  -1.54630E-04  -4.21979E-06  -1.97190E-06  -3.19742E-06
 0.909   4.84557E-05                 0.00000E+00  -3.96890E-06   4.02032E-05   1.26571E-04  -5.28430E-07  -5.89705E-05  -8.32608E-07  -4.46721E-07  -7.80552E-07
 0.919   2.06652E-05                 0.00000E+00  -1.71755E-06   1.33405E-05   5.51118E-05   5.65185E-07  -2.49943E-05  -3.28675E-07  -1.29985E-07  -2.14335E-07
 0.929   8.52624E-06                 0.00000E+00  -5.39018E-07   4.88004E-06   2.28186E-05   3.54770E-08  -1.04617E-05  -8.61896E-08  -4.89702E-08  -1.39525E-07
 0.939   3.03864E-06                 0.00000E+00  -2.17768E-07   1.50276E-06   8.19091E-06   7.54336E-08  -3.70046E-06  -3.47165E-08  -1.82101E-08  -5.21565E-08
 0.949   8.67986E-07                 0.00000E+00  -5.87200E-08   3.61805E-07   2.35402E-06   2.80295E-08  -1.05055E-06  -8.65215E-09  -4.68769E-09  -1.79796E-08
 0.960   1.93997E-07                 0.00000E+00  -1.09653E-08   7.08666E-08   5.28046E-07   5.56867E-09  -2.33829E-07  -1.50401E-09  -9.25353E-10  -5.24511E-09
 0.970   2.91914E-08                 0.00000E+00  -1.36597E-09   8.44337E-09   7.99092E-08   9.23092E-10  -3.47663E-08  -1.59702E-10  -1.16721E-10  -9.99593E-10
 0.980   2.50396E-09                 0.00000E+00  -1.44718E-10   3.41554E-10   6.91508E-09   1.32757E-10  -2.90592E-09  -1.51776E-11  -1.15277E-11  -9.90042E-11
 0.990   8.50700E-11                 0.00000E+00  -2.09179E-11  -4.37654E-11   2.33605E-10   1.53426E-11  -8.92255E-11  -2.62703E-12  -1.65797E-12  -1.34561E-12
 1.000   7.04725E-13                 0.00000E+00   4.22148E-17   6.65018E-15   1.95403E-12  -8.27308E-15  -8.05783E-13  -7.13995E-29   5.17697E-16  -4.58085E-14

 B^s_sinmn; fsq_total:  2.1605E-25
                       MPOL--->             0             1             2             0             1             2             0             1             2
RADIUS        RMS      NTOR--->            -1            -1            -1             0             0             0             1             1             1
 0.010   6.23228E-04                 0.00000E+00   1.46596E-03  -6.72852E-04   0.00000E+00   2.33414E-04  -1.55489E-04   6.02762E-07   8.56284E-04  -2.86442E-04
 0.020   6.93831E-04                 0.00000E+00   1.68535E-03  -7.83039E-04   0.00000E+00   1.60018E-04  -5.80500E-05   2.69189E-06   9.21920E-04   1.16928E-05
 0.030   7.67230E-04                 0.00000E+00   1.82954E-03  -1.03757E-03   0.00000E+00   1.21286E-04  -5.26077E-05   5.44431E-06   9.22920E-04   6.85778E-05
 0.040   8.37850E-04                 0.00000E+00   1.89756E-03  -1.36375E-03   0.00000E+00   1.05008E-04  -7.38179E-05   8.27596E-06   9.13786E-04   7.65390E-05
 0.051   9.13771E-04                 0.00000E+00   1.94040E-03  -1.70229E-03   0.00000E+00   9.63289E-05  -9.12267E-05   1.11168E-05   9.08230E-04   9.62431E-05
 0.061   9.95533E-04                 0.00000E+00   1.97392E-03  -2.04359E-03   0.00000E+00   9.00627E-05  -1.09824E-04   1.40185E-05   9.02275E-04   1.12642E-04
 0.071   1.08339E-03                 0.00000E+00   2.00295E-03  -2.38889E-03   0.00000E+00   8.47817E-05  -1.27748E-04   1.69701E-05   8.96732E-04   1.30394E-04
 0.081   1.17640E-03                 0.00000E+00   2.03104E-03  -2.73617E-03   0.00000E+00   8.05115E-05  -1.45938E-04   2.00050E-05   8.90878E-04   1.47137E-04
 0.091   1.27382E-03                 0.00000E+00   2.05906E-03  -3.08556E-03   0.00000E+00   7.62454E-05  -1.63592E-04   2.31176E-05   8.84937E-04   1.64061E-04
 0.101   1.37509E-03                 0.00000E+00   2.08808E-03  -3.43720E-03   0.00000E+00   7.26285E-05  -1.81286E-04   2.63270E-05   8.78678E-04   1.80381E-04
 0.111   1.47950E-03                 0.00000E+00   2.11874E-03  -3.79035E-03   0.00000E+00   6.89700E-05  -1.98581E-04   2.96431E-05   8.72210E-04   1.96609E-04
 0.121   1.58650E-03                 0.00000E+00   2.15095E-03  -4.14495E-03   0.00000E+00   6.54135E-05  -2.15630E-04   3.30675E-05   8.65319E-04   2.12330E-04
 0.131   1.69590E-03                 0.00000E+00   2.18543E-03  -4.50125E-03   0.00000E+00   6.18998E-05  -2.32512E-04   3.66202E-05   8.58077E-04   2.27787E-04
 0.141   1.80703E-03                 0.00000E+00   2.22193E-03  -4.85818E-03   0.00000E+00   5.82042E-05  -2.48945E-04   4.02965E-05   8.50514E-04   2.42722E-04
 0.152   1.91996E-03                 0.00000E+00   2.26074E-03  -5.21664E-03   0.00000E+00   5.50053E-05  -2.65388E-04   4.41090E-05   8.42938E-04   2.57189E-04
 0.162   2.03447E-03                 0.00000E+00   2.30204E-03  -5.57640E-03   0.00000E+00   5.23128E-05  -2.81544E-04   4.80708E-05   8.35624E-04   2.71084E-04
 0.172   2.15020E-03                 0.00000E+00   2.34550E-03  -5.93696E-03   0.00000E+00   5.02309E-05  -2.97671E-04   5.21825E-05   8.28515E-04   2.84441E-04
 0.182   2.26725E-03                 0.00000E+00   2.39142E-03  -6.29904E-03   0.00000E+00   4.84597E-05  -3.13712E-04   5.64526E-05   8.21364E-04   2.97237E-04
 0.192   2.38499E-03                 0.00000E+00   2.43965E-03  -6.66100E-03   0.00000E+00   4.66101E-05  -3.29371E-04   6.08826E-05   8.13943E-04   3.09501E-04
 0.202   2.50370E-03                 0.00000E+00   2.49044E-03  -7.02391E-03   0.00000E+00   4.50573E-05  -3.45151E-04   6.54883E-05   8.06349E-04   3.21180E-04
