
 p_cosmn; fsq_total:  2.0091E-25
                       MPOL--->             0             1             2             0             1             2             0             1             2
RADIUS        RMS      NTOR--->            -1            -1            -1             0             0             0             1             1             1
 0.010   3.87077E-03                 0.00000E+00   4.55052E-07   2.22962E-07   1.16122E-02   2.17477E-05  -5.38446E-05  -2.98771E-08  -2.12668E-06   7.72427E-06
 0.020   3.87102E-03                 0.00000E+00   6.43896E-07   5.25771E-07   1.16126E-02   2.17870E-05  -9.69169E-05   3.34326E-08  -2.99639E-06   1.24107E-05
 0.030   3.87124E-03                 0.00000E+00   3.78227E-07   3.70603E-07   1.16128E-02   2.17600E-05  -1.40764E-04  -3.25674E-08  -3.03266E-06   1.76185E-05
 0.040   3.87147E-03                 0.00000E+00   5.62267E-07   6.34811E-07   1.16129E-02   2.18575E-05  -1.84783E-04   3.24231E-08  -3.12270E-06   2.29629E-05
 0.051   3.87172E-03                 0.00000E+00   3.71064E-07   7.23600E-07   1.16128E-02   2.17894E-05  -2.29410E-04  -3.28154E-08  -3.08617E-06   2.84256E-05
 0.061   3.87206E-03                 0.00000E+00   5.72083E-07   9.30656E-07   1.16129E-02   2.18751E-05  -2.74278E-04   3.16493E-08  -3.13458E-06   3.39293E-05
 0.071   3.87245E-03                 0.00000E+00   3.93924E-07   1.16739E-06   1.16129E-02   2.18303E-05  -3.19665E-04  -2.96332E-08  -3.10032E-06   3.95423E-05
 0.081   3.87292E-03                 0.00000E+00   5.63372E-07   1.37719E-06   1.16129E-02   2.18645E-05  -3.65324E-04   2.63805E-08  -3.13657E-06   4.51698E-05
 0.091   3.87346E-03                 0.00000E+00   4.19615E-07   1.70565E-06   1.16130E-02   2.18387E-05  -4.11391E-04  -2.28381E-08  -3.11509E-06   5.09188E-05
 0.101   3.87407E-03                 0.00000E+00   5.35941E-07   2.01123E-06   1.16130E-02   2.18047E-05  -4.57701E-04   1.96432E-08  -3.15575E-06   5.66862E-05
 0.111   3.87477E-03                 0.00000E+00   4.35815E-07   2.47317E-06   1.16132E-02   2.17144E-05  -5.04205E-04  -1.70904E-08  -3.16985E-06   6.26213E-05
 0.121   3.87552E-03                 0.00000E+00   4.59597E-07   2.93137E-06   1.16133E-02   2.16277E-05  -5.50883E-04   1.47781E-08  -3.21093E-06   6.85907E-05
 0.131   3.87635E-03                 0.00000E+00   4.40323E-07   3.48649E-06   1.16134E-02   2.17117E-05  -5.97909E-04  -1.23607E-08  -3.17956E-06   7.46601E-05
 0.141   3.87719E-03                 0.00000E+00   4.56076E-07   3.89999E-06   1.16133E-02   2.18883E-05  -6.45686E-04   8.71606E-09  -3.10525E-06   8.05857E-05
 0.152   3.87816E-03                 0.00000E+00   5.50606E-07   4.32960E-06   1.16134E-02   2.23017E-05  -6.94360E-04  -2.31989E-09  -2.99991E-06   8.64230E-05
 0.162   3.87923E-03                 0.00000E+00   6.36188E-07   4.75001E-06   1.16135E-02   2.22941E-05  -7.43766E-04  -1.34466E-09  -2.97825E-06   9.21554E-05
 0.172   3.88040E-03                 0.00000E+00   4.95321E-07   5.11399E-06   1.16137E-02   2.21073E-05  -7.93104E-04  -1.96041E-09  -3.06370E-06   9.80662E-05
 0.182   3.88156E-03                 0.00000E+00   4.94387E-07   5.64030E-06   1.16137E-02   2.19353E-05  -8.42441E-04   9.22242E-09  -3.12604E-06   1.04103E-04
 0.192   3.88280E-03                 0.00000E+00   4.24905E-07   6.29086E-06   1.16136E-02   2.20611E-05  -8.92013E-04  -1.92998E-08  -3.09123E-06   1.10186E-04
 0.202   3.88416E-03                 0.00000E+00   6.23788E-07   6.94475E-06   1.16137E-02   2.23259E-05  -9.42435E-04   3.64688E-08  -3.04521E-06   1.16149E-04
 0.212   3.88561E-03                 0.00000E+00   5.32978E-07   7.51495E-06   1.16138E-02   2.22775E-05  -9.93258E-04  -5.76483E-08  -3.01801E-06   1.22133E-04
 0.222   3.88714E-03                 0.00000E+00   5.40834E-07   8.08013E-06   1.16138E-02   2.23061E-05  -1.04438E-03   7.39674E-08  -3.08418E-06   1.28115E-04
 0.232   3.88871E-03                 0.00000E+00   5.15419E-07   8.71541E-06   1.16138E-02   2.22529E-05  -1.09568E-03  -8.23254E-08  -3.06007E-06   1.34217E-04
 0.242   3.89038E-03                 0.00000E+00   5.07949E-07   9.56573E-06   1.16137E-02   2.23519E-05  -1.14727E-03   8.05855E-08  -3.09458E-06   1.40240E-04
 0.253   3.89214E-03                 0.00000E+00   6.00651E-07   1.01868E-05   1.16137E-02   2.23895E-05  -1.19938E-03  -6.56643E-08  -3.05983E-06   1.46339E-04
 0.263   3.89396E-03                 0.00000E+00   4.56229E-07   1.10749E-05   1.16136E-02   2.23381E-05  -1.25152E-03   3.39165E-08  -3.09159E-06   1.52375E-04
 0.273   3.89588E-03                 0.00000E+00   5.80057E-07   1.17575E-05   1.16136E-02   2.24546E-05  -1.30420E-03   8.01013E-09  -3.09845E-06   1.58472E-04
 0.283   3.89784E-03                 0.00000E+00   4.70407E-07   1.26893E-05   1.16134E-02   2.23541E-05  -1.35683E-03  -5.42472E-08  -3.07834E-06   1.64542E-04
 0.293   3.89991E-03                 0.00000E+00   5.17797E-07   1.35623E-05   1.16132E-02   2.24733E-05  -1.40993E-03   8.95853E-08  -3.12805E-06   1.70592E-04
 0.303   3.90203E-03                 0.00000E+00   4.97532E-07   1.43629E-05   1.16129E-02   2.24085E-05  -1.46315E-03  -1.08940E-07  -3.07168E-06   1.76666E-04
 0.313   3.90420E-03                 0.00000E+00   4.17933E-07   1.54415E-05   1.16125E-02   2.24385E-05  -1.51649E-03   9.55371E-08  -3.13824E-06   1.82675E-04
 0.323   3.90645E-03                 0.00000E+00   4.94768E-07   1.61930E-05   1.16121E-02   2.24899E-05  -1.57026E-03  -5.76417E-08  -3.08661E-06   1.88695E-04
 0.333   3.90871E-03                 0.00000E+00   3.45450E-07   1.72716E-05   1.16115E-02   2.23997E-05  -1.62384E-03  -1.31474E-08  -3.11845E-06   1.94683E-04
 0.343   3.91104E-03                 0.00000E+00   3.82845E-07   1.81596E-05   1.16107E-02   2.25357E-05  -1.67797E-03   8.11188E-08  -3.11865E-06   2.00589E-04
 0.354   3.91336E-03                 0.00000E+00   3.15664E-07   1.89874E-05   1.16097E-02   2.24349E-05  -1.73194E-03  -1.49577E-07  -3.08820E-06   2.06554E-04
 0.364   3.91569E-03                 0.00000E+00   1.81620E-07   2.00728E-05   1.16085E-02   2.24977E-05  -1.78617E-03   1.60752E-07  -3.13606E-06   2.12333E-04
 0.374   3.91801E-03                 0.00000E+00   2.20522E-07   2.06408E-05   1.16069E-02   2.25487E-05  -1.84064E-03  -1.45079E-07  -3.08222E-06   2.18205E-04
 0.384   3.92024E-03                 0.00000E+00  -8.55425E-09   2.15956E-05   1.16049E-02   2.24398E-05  -1.89486E-03   4.54036E-08  -3.10947E-06   2.23911E-04
 0.394   3.92245E-03                 0.00000E+00  -6.43495E-08   2.21789E-05   1.16024E-02   2.26260E-05  -1.94965E-03   3.94285E-08  -3.10885E-06   2.29584E-04
 0.404   3.92448E-03                 0.00000E+00  -1.87735E-07   2.25348E-05   1.15992E-02   2.24943E-05  -2.00406E-03  -1.68883E-07  -3.05441E-06   2.35247E-04
 0.414   3.92636E-03                 0.00000E+00  -4.94218E-07   2.31439E-05   1.15952E-02   2.25711E-05  -2.05874E-03   1.74042E-07  -3.12333E-06   2.40699E-04
 0.424   3.92805E-03                 0.00000E+00  -5.59105E-07   2.29028E-05   1.15904E-02   2.26585E-05  -2.11353E-03  -1.87283E-07  -3.02582E-06   2.46212E-04
 0.434   3.92937E-03                 0.00000E+00  -9.27037E-07   2.28596E-05   1.15843E-02   2.24980E-05  -2.16790E-03   9.21088E-09  -3.07307E-06   2.51546E-04
 0.444   3.93040E-03                 0.00000E+00  -1.27526E-06   2.23758E-05   1.15769E-02   2.27222E-05  -2.22274E-03   6.27344E-08  -3.04091E-06   2.56737E-04
 0.455   3.93092E-03                 0.00000E+00  -1.48010E-06   2.10014E-05   1.15678E-02   2.26048E-05  -2.27700E-03  -2.80339E-07  -2.98066E-06   2.61993E-04
 0.465   3.93085E-03                 0.00000E+00  -2.16916E-06   1.98751E-05   1.15567E-02   2.25840E-05  -2.33122E-03   1.79652E-07  -3.02803E-06   2.66869E-04
 0.475   3.93015E-03                 0.00000E+00  -2.52504E-06   1.73820E-05   1.15434E-02   2.27840E-05  -2.38545E-03  -2.28072E-07  -2.92892E-06   2.71832E-04
 0.485   3.92851E-03                 0.00000E+00  -3.12967E-06   1.42981E-05   1.15271E-02   2.25099E-05  -2.43876E-03  -1.46465E-07  -2.91885E-06   2.76571E-04
 0.495   3.92592E-03                 0.00000E+00  -4.07901E-06   1.08031E-05   1.15076E-02   2.26911E-05  -2.49220E-03   1.03033E-07  -2.91836E-06   2.81019E-04
 0.505   3.92212E-03                 0.00000E+00  -4.61351E-06   5.21875E-06   1.14843E-02   2.26777E-05  -2.54475E-03  -4.46964E-07  -2.77806E-06   2.85554E-04
 0.515   3.91680E-03                 0.00000E+00  -5.78355E-06  -8.19720E-07   1.14563E-02   2.24059E-05  -2.59639E-03   9.23751E-09  -2.82634E-06   2.89630E-04
 0.525   3.90991E-03                 0.00000E+00  -7.01312E-06  -8.47565E-06   1.14232E-02   2.26797E-05  -2.64766E-03  -1.73245E-07  -2.70956E-06   2.93548E-04
 0.535   3.90096E-03                 0.00000E+00  -7.93575E-06  -1.87392E-05   1.13839E-02   2.23888E-05  -2.69715E-03  -5.49116E-07  -2.61517E-06   2.97424E-04
 0.545   3.88969E-03                 0.00000E+00  -9.86389E-06  -2.97691E-05   1.13374E-02   2.22234E-05  -2.74559E-03   5.39556E-08  -2.63275E-06   3.00622E-04
 0.556   3.87585E-03                 0.00000E+00  -1.13669E-05  -4.40286E-05   1.12830E-02   2.24340E-05  -2.79256E-03  -5.87139E-07  -2.43761E-06   3.03870E-04
 0.566   3.85880E-03                 0.00000E+00  -1.30483E-05  -6.12835E-05   1.12190E-02   2.18730E-05  -2.83683E-03  -5.46498E-07  -2.39280E-06   3.06689E-04
 0.576   3.83827E-03                 0.00000E+00  -1.57638E-05  -8.02892E-05   1.11444E-02   2.18636E-05  -2.87938E-03  -1.36144E-07  -2.33486E-06   3.08839E-04
 0.586   3.81376E-03                 0.00000E+00  -1.77051E-05  -1.04332E-04   1.10578E-02   2.18354E-05  -2.91876E-03  -1.02529E-06  -2.09733E-06   3.11030E-04
 0.596   3.78452E-03                 0.00000E+00  -2.04308E-05  -1.31777E-04   1.09572E-02   2.10920E-05  -2.95434E-03  -5.74658E-07  -2.09230E-06   3.12407E-04
 0.606   3.75021E-03                 0.00000E+00  -2.39394E-05  -1.62722E-04   1.08412E-02   2.12110E-05  -2.98669E-03  -5.48856E-07  -1.93001E-06   3.13146E-04
 0.616   3.71007E-03                 0.00000E+00  -2.64913E-05  -2.00389E-04   1.07079E-02   2.08325E-05  -3.01363E-03  -1.49623E-06  -1.69479E-06   3.13815E-04
 0.626   3.66329E-03                 0.00000E+00  -3.04526E-05  -2.42175E-04   1.05550E-02   2.00271E-05  -3.03509E-03  -6.94269E-07  -1.70883E-06   3.13195E-04
 0.636   3.60943E-03                 0.00000E+00  -3.46418E-05  -2.89577E-04   1.03808E-02   2.02516E-05  -3.05081E-03  -1.21215E-06  -1.43122E-06   3.12104E-04
 0.646   3.54751E-03                 0.00000E+00  -3.78963E-05  -3.45238E-04   1.01830E-02   1.94980E-05  -3.05818E-03  -1.97599E-06  -1.26207E-06   3.10557E-04
 0.657   3.47675E-03                 0.00000E+00  -4.30447E-05  -4.05833E-04   9.95893E-03   1.88242E-05  -3.05757E-03  -1.00061E-06  -1.24199E-06   3.07388E-04
 0.667   3.39661E-03                 0.00000E+00  -4.75667E-05  -4.74332E-04   9.70698E-03   1.91715E-05  -3.04750E-03  -2.09818E-06  -9.09299E-07   3.03855E-04
 0.677   3.30610E-03                 0.00000E+00  -5.14440E-05  -5.51765E-04   9.42458E-03   1.81911E-05  -3.02541E-03  -2.46842E-06  -8.14527E-07   2.99386E-04
 0.687   3.20455E-03                 0.00000E+00  -5.72130E-05  -6.35089E-04   9.10925E-03   1.80410E-05  -2.99178E-03  -1.53338E-06  -7.72288E-07   2.93051E-04
 0.697   3.09150E-03                 0.00000E+00  -6.12972E-05  -7.27926E-04   8.75978E-03   1.85258E-05  -2.94393E-03  -3.21731E-06  -4.00128E-07   2.86594E-04
 0.707   2.96619E-03                 0.00000E+00  -6.54602E-05  -8.28893E-04   8.37396E-03   1.77990E-05  -2.87966E-03  -2.83846E-06  -4.71333E-07   2.78432E-04
 0.717   2.82840E-03                 0.00000E+00  -7.06017E-05  -9.35529E-04   7.95042E-03   1.90162E-05  -2.79939E-03  -2.41375E-06  -3.09312E-07   2.68697E-04
 0.727   2.67824E-03                 0.00000E+00  -7.28064E-05  -1.05081E-03   7.48944E-03   1.99796E-05  -2.69967E-03  -4.33054E-06  -4.71629E-08   2.58937E-04
 0.737   2.51572E-03                 0.00000E+00  -7.61031E-05  -1.17023E-03   6.99050E-03   2.05655E-05  -2.57988E-03  -2.97100E-06  -2.13365E-07   2.46849E-04
 0.747   2.34163E-03                 0.00000E+00  -7.87505E-05  -1.29006E-03   6.45544E-03   2.47496E-05  -2.43936E-03  -3.51779E-06   4.99185E-08   2.33918E-04
 0.758   2.15775E-03                 0.00000E+00  -7.70167E-05  -1.40776E-03   5.88925E-03   2.80684E-05  -2.27653E-03  -4.63921E-06   2.26560E-07   2.20849E-04
 0.768   1.96630E-03                 0.00000E+00  -7.60455E-05  -1.51499E-03   5.29756E-03   3.25507E-05  -2.09493E-03  -2.50290E-06   1.24437E-07   2.05240E-04
 0.778   1.77002E-03                 0.00000E+00  -7.27093E-05  -1.60069E-03   4.69094E-03   4.12891E-05  -1.89378E-03  -3.74320E-06   5.95724E-07   1.89880E-04
 0.788   1.57271E-03                 0.00000E+00  -6.41585E-05  -1.64797E-03   4.08553E-03   5.02716E-05  -1.67834E-03  -1.96274E-06   8.80987E-07   1.73022E-04
 0.798   1.38118E-03                 0.00000E+00  -5.15428E-05  -1.64742E-03   3.50414E-03   5.72757E-05  -1.46485E-03  -7.29040E-07   1.42739E-06   1.55335E-04
 0.808   1.19901E-03                 0.00000E+00  -4.09141E-05  -1.58822E-03   2.96928E-03   6.46167E-05  -1.25500E-03   4.71913E-07   1.72450E-06   1.36861E-04
 0.818   1.03225E-03                 0.00000E+00  -2.28828E-05  -1.46227E-03   2.50804E-03   6.87836E-05  -1.06874E-03   2.66223E-06   2.57575E-06   1.18139E-04
 0.828   8.93985E-04                 0.00000E+00  -6.63989E-06  -1.29734E-03   2.15262E-03   5.97344E-05  -9.28643E-04   2.71158E-06   2.39939E-06   1.00043E-04
 0.838   7.74038E-04                 0.00000E+00  -3.30302E-06  -1.04378E-03   1.90697E-03   7.13881E-05  -8.09255E-04   8.52440E-06   2.96244E-06   7.81995E-05
 0.848   6.55039E-04                 0.00000E+00  -4.18801E-06  -4.52187E-04   1.76812E-03   9.15428E-05  -7.20976E-04   1.97204E-05   8.28943E-06   4.80921E-05
 0.859   5.99179E-04                 0.00000E+00  -1.85976E-05   2.94548E-04   1.63510E-03   5.12168E-05  -6.83731E-04   1.28356E-05   6.89552E-06   1.29510E-05
 0.869   4.92287E-04                 0.00000E+00  -2.75598E-05   5.17321E-04   1.26138E-03  -5.00908E-07  -5.67115E-04  -5.15282E-06  -1.67331E-06  -8.98256E-07
 0.879   2.82076E-04                 0.00000E+00  -1.98862E-05   2.66702E-04   7.27736E-04  -4.45528E-06  -3.38980E-04  -6.30086E-06  -2.96734E-06   6.65245E-07
 0.889   1.35466E-04                 0.00000E+00  -9.50925E-06   7.74536E-05   3.62707E-04   2.92462E-06  -1.65820E-04  -2.05628E-06  -7.52205E-07   1.95564E-06
 0.899   7.15044E-05                 0.00000E+00  -3.89811E-06   2.75349E-05   1.93803E-04   2.28722E-06  -8.76169E-05  -5.02733E-07  -2.41561E-07   8.81051E-07
 0.909   3.80532E-05                 0.00000E+00  -2.18407E-06   1.22185E-05   1.03442E-04   1.53860E-06  -4.66429E-05  -2.59279E-07  -9.83142E-08   4.66942E-07
 0.919   1.82415E-05                 0.00000E+00  -9.67873E-07   5.09422E-06   4.96749E-05   7.79251E-07  -2.23527E-05  -1.12110E-07  -6.34207E-08   1.32082E-07
 0.929   7.73734E-06                 0.00000E+00  -4.86310E-07   1.64079E-06   2.11303E-05   4.07260E-07  -9.44496E-06  -4.88127E-08  -1.89633E-08   5.68543E-08
 0.939   2.81327E-06                 0.00000E+00  -1.32356E-07   6.17505E-07   7.69287E-06   1.55038E-07  -3.40983E-06  -1.43922E-08  -1.00818E-08  -4.76018E-09
 0.949   8.22242E-07                 0.00000E+00  -5.62659E-08   1.02665E-07   2.25291E-06   4.56055E-08  -9.96655E-07  -5.33991E-09  -2.19036E-09  -4.46814E-10
 0.960   1.84770E-07                 0.00000E+00  -5.79046E-09   3.31547E-08   5.08296E-07   1.31481E-08  -2.18121E-07  -5.18165E-10  -6.64280E-10  -3.14875E-09
 0.970   2.78926E-08                 0.00000E+00  -1.77822E-09   1.26570E-09   7.66553E-08   1.13836E-09  -3.34614E-08  -1.59954E-10  -6.84618E-11  -4.27532E-10
 0.980   2.44595E-09                 0.00000E+00  -8.93662E-11   1.31991E-10   6.75345E-09   1.08066E-10  -2.86205E-09  -7.19366E-12  -6.15364E-12  -8.03363E-11
 0.990   9.22565E-11                 0.00000E+00  -2.61035E-11  -5.85235E-11   2.30190E-10  -3.02272E-11  -1.36264E-10  -3.07300E-12   4.41089E-13   4.03550E-12
 1.000   6.96466E-13                 0.00000E+00   4.17200E-17   6.57224E-15   1.93113E-12  -8.17612E-15  -7.96339E-13  -1.07099E-28   5.11629E-16  -4.52716E-14

 B^s_sinmn; fsq_total:  2.0091E-25
                       MPOL--->             0             1             2             0             1             2             0             1             2
RADIUS        RMS      NTOR--->            -1            -1            -1             0             0             0             1             1             1
 0.010   7.23490E-04                 0.00000E+00   1.63274E-03  -1.67758E-04   0.00000E+00   3.89184E-04   1.82734E-04   3.79076E-07   1.26578E-03   4.79491E-04
 0.020   7.43902E-04                 0.00000E+00   1.91571E-03  -3.11401E-04   0.00000E+00   3.59470E-04  -1.01921E-05   3.49938E-06   1.03740E-03   8.98246E-05
 0.030   7.86866E-04                 0.00000E+00   2.07962E-03  -4.79703E-04   0.00000E+00   3.25645E-04  -6.93053E-05   7.44765E-06   9.50880E-04   4.92579E-05
 0.040   8.17605E-04                 0.00000E+00   2.15019E-03  -6.52656E-04   0.00000E+00   3.07331E-04  -8.74685E-05   1.12174E-05   9.26380E-04   8.12512E-05
 0.051   8.44186E-04                 0.00000E+00   2.19123E-03  -8.19052E-04   0.00000E+00   2.98334E-04  -1.11806E-04   1.49864E-05   9.11208E-04   9.73374E-05
 0.061   8.70707E-04                 0.00000E+00   2.21848E-03  -9.85977E-04   0.00000E+00   2.91047E-04  -1.33949E-04   1.87367E-05   9.01346E-04   1.18053E-04
 0.071   8.98681E-04                 0.00000E+00   2.23932E-03  -1.15387E-03   0.00000E+00   2.85925E-04  -1.57150E-04   2.25099E-05   8.92821E-04   1.36371E-04
 0.081   9.28511E-04                 0.00000E+00   2.25677E-03  -1.32140E-03   0.00000E+00   2.81179E-04  -1.79671E-04   2.63046E-05   8.85314E-04   1.55820E-04
 0.091   9.60644E-04                 0.00000E+00   2.27240E-03  -1.49059E-03   0.00000E+00   2.77055E-04  -2.02432E-04   3.01339E-05   8.77935E-04   1.74473E-04
 0.101   9.94920E-04                 0.00000E+00   2.28727E-03  -1.65985E-03   0.00000E+00   2.73340E-04  -2.24841E-04   3.39989E-05   8.70745E-04   1.93529E-04
 0.111   1.03135E-03                 0.00000E+00   2.30179E-03  -1.83010E-03   0.00000E+00   2.69688E-04  -2.47164E-04   3.79065E-05   8.63367E-04   2.12212E-04
 0.121   1.06984E-03                 0.00000E+00   2.31655E-03  -2.00094E-03   0.00000E+00   2.66320E-04  -2.69273E-04   4.18607E-05   8.55810E-04   2.31000E-04
 0.131   1.11011E-03                 0.00000E+00   2.33153E-03  -2.17211E-03   0.00000E+00   2.62715E-04  -2.91119E-04   4.58595E-05   8.47892E-04   2.49546E-04
 0.141   1.15217E-03                 0.00000E+00   2.34715E-03  -2.34390E-03   0.00000E+00   2.59329E-04  -3.12793E-04   4.99078E-05   8.39750E-04   2.67992E-04
 0.152   1.19570E-03                 0.00000E+00   2.36330E-03  -2.51566E-03   0.00000E+00   2.56098E-04  -3.34173E-04   5.40028E-05   8.31615E-04   2.86184E-04
 0.162   1.24079E-03                 0.00000E+00   2.38018E-03  -2.68807E-03   0.00000E+00   2.53596E-04  -3.55453E-04   5.81529E-05   8.23739E-04   3.04122E-04
 0.172   1.28720E-03                 0.00000E+00   2.39775E-03  -2.86079E-03   0.00000E+00   2.51665E-04  -3.76610E-04   6.23619E-05   8.16110E-04   3.21773E-04
 0.182   1.33482E-03                 0.00000E+00   2.41600E-03  -3.03397E-03   0.00000E+00   2.49985E-04  -3.97615E-04   6.66175E-05   8.08409E-04   3.39129E-04
 0.192   1.38345E-03                 0.00000E+00   2.43511E-03  -3.20719E-03   0.00000E+00   2.48385E-04  -4.18477E-04   7.09257E-05   8.00450E-04   3.56215E-04
 0.202   1.43296E-03                 0.00000E+00   2.45504E-03  -3.38036E-03   0.00000E+00   2.46916E-04  -4.39100E-04   7.52889E-05   7.92320E-04   3.73039E-04
